#
#--------------------------------------------
# ARGUMENTS
#--------------------------------------------
#  ARG0000: /g/lu/code/fortran/hst1pass/CODE/hst1pass/hst1pass
#  ARG0001: HMIN=5
#  ARG0002: FMIN=25
#  ARG0003: PSF=/g/lu/code/fortran/hst1pass/LIB/PSFs/STDPSFs/WFC3UV/STDPSF_WFC3UV_F814W.fits
#  ARG0004: GDC=/g/lu/code/fortran/hst1pass/LIB/GDCs/STDGDCs/WFC3UV/STDGDC_WFC3UV_F814W.fits
#  ARG0005: PMAX=99999
#  ARG0006: CMIN=-1.0
#  ARG0007: CMAX=0.1
#  ARG0008: QMAX=0.5
#  ARG0009: PERT=0
#  ARG0010: OUT=uvwXYMpq
#  ARG0011: ../00.DATA/ie8j01xlq_flt.fits
#
#=================================
# WFC3/UVIS POSTFLASH INFO
#
# FLSHCORR: 'COMPLETE'
# FLASHDUR:                  3.9               3.90
# FLASHLVL:                   10              10.00
# FLASHLVL:                   10              10.00
# FLASHCUR: 'LOW    '                           L
# SHUTRPOS: 'B    '                             B
# DARKTIME:            96.707296              96.71
# DARKEST :                                    1.03 2020.20
#
#
#================================
# BASIC STAR-FINDING PARAMETERS
#
# FILENAME: ../00.DATA/ie8j01xlq_flt.fits
#   NAXIS1:  4096
#   NAXIS2:  4096
#
#   CRPIX1:     512.0000000000000000000000
#   CRPIX2:     511.0000000000000000000000
#   CRVAL1:     271.4794319394100057252217
#   CRVAL2:     -30.3369711106279993373391
#    CD1_1:       0.0000075969050041170608
#    CD1_2:       0.0000080216305677613700
#    CD2_1:       0.0000080216305677613700
#    CD2_2:      -0.0000075969050041170608
#
#     HMIN:          5
#     PMAX:      99999.0
#     FMIN:         25.0        25.0
# HISTMODE:          7.9
# HIFLAG  :      64000
# HIFLAG_I:      64000
# LOFLAG_I:        -50
# DOAPPHOT:          F
#      PID:      16067
#     FILT:      F814W
#    EXPTI:         87.0000
#    EXPTE:         87.0000
#     rDAT:       2020.19904900
#  TIMESTR:      '15:41:26'
#  DATESTR:      '2020-03-13'
# APERTURE:      'UVIS2-C1K1C-SUB '
#     GAIN:          0.00
#
#  PSF_INP: /g/lu/code/fortran/hst1pass/LIB/PSFs/STDPSFs/WFC3UV/STDPSF_WFC3UV_F814W.fits
#  PSF_USE: /g/lu/code/fortran/hst1pass/LIB/PSFs/STDPSFs/WFC3UV/STDPSF_WFC3UV_F814W.fits
#   NPERTs:    0
#
#  GDC_INP: /g/lu/code/fortran/hst1pass/LIB/GDCs/STDGDCs/WFC3UV/STDGDC_WFC3UV_F814W.fits
#
#
#================================
# PSF INFO
#
# PSFFILE_USE: /g/lu/code/fortran/hst1pass/LIB/PSFs/STDPSFs/WFC3UV/STDPSF_WFC3UV_F814W.fits
#
#      CENTRAL PIXEL ARRAY
#                           0000    0682    1365    2048    2731    3413    4096
#                             01      02      03      04      05      06      07
#               4096 08   0.1531  0.1594  0.1651  0.1662  0.1672  0.1688  0.1687
#               3413 07   0.1590  0.1618  0.1645  0.1658  0.1668  0.1677  0.1687
#               2731 06   0.1629  0.1645  0.1651  0.1659  0.1677  0.1684  0.1694
#               2049 05   0.1632  0.1655  0.1663  0.1663  0.1686  0.1697  0.1700
#               2048 04   0.1623  0.1666  0.1690  0.1680  0.1692  0.1719  0.1743
#               1365 03   0.1644  0.1668  0.1668  0.1673  0.1716  0.1733  0.1736
#               0682 02   0.1648  0.1656  0.1645  0.1696  0.1791  0.1741  0.1704
#               0000 01   0.1629  0.1640  0.1643  0.1746  0.1842  0.1734  0.1678
#
#
#=================================
# FRAME INFO
#
#      WCSMODE: AUTO
#     TARGNAME: MOA-2019-BLG-284
#     RA_TARG :   2.714794166667E+02
#     DEC_TARG:  -3.033692777778E+01
#        INSTu:     8
#     PLATESCL:   40.000 mas/pix
#
#        INST1:        512.00      0.00000760  0.00000802       271.4794319  18:05:55.06
#            2:        511.00      0.00000802 -0.00000760       -30.3369711 -30:20:13.09       39.773
#        -----     ----------     ----------- -----------      ------------ ------------     ---------
#        FRAME         CRPIX         CD_1        CD_2           RADEC(DEG)  RADEC(SEXIG)     (mas/pix)
#        -----     ----------     ----------- -----------      ------------ ------------     ---------
#        DEST1:          0.00     -0.00001111  0.00000000       271.4794167  18:05:55.05       40.000
#            2:          0.00      0.00000000  0.00001111       -30.3369278 -30:20:12.93
#
#
#=======================================
# FINDING STATISTICS
#
#  WHY    NPIX      %PIX   EXPLANATION
#  --- --------  -------   -------------
#   1 15657035   93.323%   ..1..not on chip....
#   2   940806    5.608%   ..2..not loc max....
#   3    86845    0.518%   ..3..h < hmax.......
#   4     3218    0.019%   ..4..flux too low...
#   5        0    0.000%   ..5..below mask thr.
#   6        0    0.000%   ..6..out of bounds..
#   7        1    0.000%   ..7..loflag issues..
#   8        0    0.000%   ..8..saturated......
#   9        1    0.000%   ..9..not contig sat.
#  10        0    0.000%   .10..not loc sat max
#  11        0    0.000%   .11..sat weirdness..
#  12     4155    0.025%   .12..pk but not qsel
#  13     1529    0.009%   .13..pk too peaky...
#  14        1    0.000%   .14..satd CR........
#  15     1800    0.011%   .15..good unsat.....
#  16        5    0.000%   .16..good satd......
#
#
#=======================================
# LUMINOSITY FUNCTION EXTRACTED
#
#    MAG   LFe    CUMe      LFe/s CUMe/s
#-------- -----  ------   ------- ------
# LF -18      1      1          0      0
# LF -17      0      1          0      0
# LF -16      0      1          0      0
# LF -15      2      3          0      0
# LF -14     12     15          0      0
# LF -13     13     28          1      1
# LF -12     23     51          0      1
# LF -11    101    152          0      1
# LF -10    226    378          3      4
# LF  -9    312    690         13     17
# LF  -8    415   1105         15     32
# LF  -7    501   1606         24     56
# LF  -6    199   1805        128    184
# LF  -5      0   1805        236    420
# LF  -4      0   1805        336    756
# LF  -3      0   1805        427   1183
# LF  -2      0   1805        502   1685
# LF  -1      0   1805        120   1805
#-------- -----  ------   ------- ------
#
#
#=====================================
# BOUNDARY INFO   INST=8 Ks=2
#
# -----------     ------------- -------------     ------------- -------------     ------------- -------------     ------------- -------------
#     SYS CHP         P1a           P1b               P2a           P2b               P3a           P3b               P4a           P4b
# -----------     ------------- -------------     ------------- -------------     ------------- -------------     ------------- -------------
# BDRY_xy_K1:         1.0000000     2.0000000      1025.0000000     2.0000000      1025.0000000  1025.0000000         1.0000000  1025.0000000
# BDRY_uv_K1:         6.5533200    73.2765900      1024.8520600   134.8837700      1027.9537700  1160.1370600        12.8410400  1095.9083900
# BDRY_rd_K1:       271.4699164   -30.3369505       271.4794522   -30.3292504       271.4890085   -30.3370139       271.4794764   -30.3446692
# BDRY_UV_K1:         6.5533200    73.2765900      1024.8520600   134.8837700      1027.9537700  1160.1370600        12.8410400  1095.9083900
# -----------     ------------- -------------     ------------- -------------     ------------- -------------     ------------- -------------
# BDRY_xy_K2:      4095.0000000  4095.0000000      4095.0000000  4095.0000000      4095.0000000  4095.0000000      4095.0000000  4095.0000000
# BDRY_uv_K2:      4085.5385400  4454.7187200      4085.5385400  4454.7187200      4085.5385400  4454.7187200      4085.5385400  4454.7187200
# BDRY_rd_K2:       271.5465431   -30.3374990       271.5465431   -30.3374990       271.5465431   -30.3374990       271.5465431   -30.3374990
# BDRY_UV_K2:      4085.5385400  4454.7187200      4085.5385400  4454.7187200      4085.5385400  4454.7187200      4085.5385400  4454.7187200
# -----------     ------------- -------------     ------------- -------------     ------------- -------------     ------------- -------------
#
#
#===================================================
#  FILEOUT: ie8j01xlq_flt.uvwXYMpq                                                          
#---------------------------------------------------
# (01)  u -- u ref-frame           c002-c010    F001
# (02)  v -- v ref-frame           c012-c020    F002
# (03)  w -- dist-corr inst mag    c022-c028    F044
# (04)  X -- dist-cor x posn       c030-c038    F008
# (05)  Y -- dist-cor y posn       c040-c048    F009
# (06)  M -- instl mag (1000s)     c050-c056    F003
# (07)  p -- peak pixel value      c058-c068    F018
# (08)  q -- quality of fit        c070-c074    F019
#---------------------------------------------------
#
#  (01)      (02)     (03)     (04)      (05)     (06)      (07)     (08)   
#
#....u.... ....v.... ...w... ....X.... ....Y.... ...M... .....p..... ..q..  
#
  157.6324   86.4352 -12.670  153.2518    5.9927 -12.669    17916.53 0.031
  361.3400   99.0173  -9.211  358.3996    6.2207  -9.207      669.54 0.071
  172.3246   88.4927  -7.099  168.0479    7.1580  -7.097      117.53 0.258
  189.5283   92.4923 -12.365  185.3628   10.1080 -12.363    12711.59 0.031
  220.8657   94.9735  -6.211  216.9287   10.6864  -6.208       58.79 0.449
  366.6000  103.7934  -6.892  363.6707   10.6631  -6.888       76.54 0.294
 1004.7764  145.2297  -7.270 1004.8320   13.5002  -7.260      112.04 0.199
  209.9037   97.2807  -8.235  205.8692   13.6502  -8.232      275.26 0.110
  553.6105  118.7395 -11.584  551.7548   14.2736 -11.578     6376.37 0.031
  693.6676  127.3887  -9.669  692.5038   14.4329  -9.662      892.94 0.084
  970.5597  143.1918  -6.570  970.5111   13.5299  -6.561       61.08 0.377
  453.4703  112.9308 -10.753  451.0579   14.5240 -10.748     2765.43 0.021
  566.8806  120.2356  -7.438  565.0922   14.9625  -7.433      153.36 0.203
  910.9435  140.7390  -7.868  910.6871   14.6819  -7.859      186.87 0.132
  487.3000  116.4728  -8.736  485.0737   16.0142  -8.731      478.25 0.090
  926.2383  143.2492  -8.975  926.0309   16.2583  -8.966      573.07 0.061
  953.8350  144.2051  -8.224  953.7246   15.5464  -8.215      246.04 0.160
  975.5571  145.6941  -7.407  975.5176   15.7191  -7.397      123.47 0.221
  809.9672  137.3847  -8.333  809.3253   17.4196  -8.325      297.86 0.061
  286.5105  106.3028  -9.325  283.0029   18.0080  -9.322      888.52 0.038
  754.0036  134.4268  -7.914  753.1334   17.8391  -7.907      242.65 0.140
 1009.1692  149.7308  -6.438 1009.2243   17.7152  -6.429       70.11 0.409
  612.2876  127.5244  -6.807  610.7129   19.4810  -6.801       83.47 0.263
  652.8672  130.2844 -10.103  651.4906   19.7798 -10.097     1447.04 0.045
  203.6819  104.0955  -9.872  199.5604   20.8215  -9.870     1228.60 0.028
  360.8275  113.7591  -8.784  357.8072   20.9452  -8.780      547.42 0.081
  958.3221  149.9611 -10.362  958.2089   21.0045 -10.352     2184.89 0.027
  730.0153  137.1888  -8.324  729.0259   22.0321  -8.317      349.83 0.076
  865.4035  145.0025  -6.542  864.9539   21.6707  -6.534       74.35 0.349
   65.2716   98.5009  -6.586   60.0585   23.6020  -6.585       78.97 0.355
  600.3280  130.2684  -7.670  598.6776   22.9364  -7.664      179.19 0.164
  737.0222  137.9750  -6.309  736.0618   22.3935  -6.302       49.32 0.456
  573.0056  129.2260  -7.565  571.2107   23.5483  -7.559      141.43 0.158
  833.0174  145.5040  -6.752  832.4396   24.1170  -6.744       77.00 0.319
  995.5795  156.0269  -7.597  995.5724   24.7977  -7.587      155.69 0.157
  131.5579  104.7452  -9.712  126.8599   25.8257  -9.711     1226.92 0.055
  693.6351  138.6000  -8.594  692.4258   25.6005  -8.587      389.46 0.107
  808.9225  145.9735  -6.683  808.2448   26.0334  -6.675       70.10 0.196
  272.5733  115.2441  -8.585  268.9146   27.7656  -8.582      404.51 0.067
  376.3851  121.2529 -10.476  373.4324   27.4738 -10.472     1836.54 0.037
  854.7465  150.8545  -7.096  854.2354   28.1369  -7.088      109.55 0.332
  948.0682  156.6574  -9.588  947.8964   28.2875  -9.579     1042.71 0.052
  639.4196  138.3583  -8.685  637.9402   28.6337  -8.679      435.58 0.086
  895.3274  155.2212  -6.379  894.9616   30.0385  -6.370       53.61 0.419
   11.4653  102.9057  -7.506    5.7661   31.2590  -7.505      143.99 0.181
  214.7845  114.4814  -7.084  210.6908   30.5047  -7.081      104.18 0.284
  327.0027  122.8897 -10.797  323.6986   32.0930 -10.794     3046.42 0.037
  484.6964  132.8028  -7.593  482.3765   32.4425  -7.588      117.43 0.259
  550.0379  136.1702  -6.249  548.0826   31.8536  -6.244       51.23 0.360
  498.6330  134.4641  -7.273  496.3880   33.2570  -7.267      120.82 0.183
  655.8546  143.6774  -6.927  654.4370   32.9392  -6.921      111.40 0.415
  823.1995  153.5485  -6.572  822.5529   32.7163  -6.564       66.99 0.304
  925.2541  160.0130  -6.328  924.9872   33.0033  -6.319       62.39 0.315
   83.3531  110.9218  -7.608   78.2174   34.8994  -7.607      171.14 0.119
  219.3942  119.2524  -6.872  215.3094   34.9827  -6.870      109.71 0.338
  876.2968  160.2936 -10.213  875.8377   36.2357 -10.205     1947.25 0.039
  902.6531  161.4636  -7.284  902.2947   35.8105  -7.275      116.04 0.333
  213.5173  120.8365  -6.679  209.3779   36.9182  -6.677       81.70 0.294
  778.4458  155.1662 -10.097  777.6042   37.0200 -10.089     1620.86 0.033
  746.3407  155.1345  -8.748  745.3560   38.9211  -8.741      371.11 0.251
  797.4480  158.5716  -7.786  796.6756   39.2673  -7.779      225.61 0.227
 1016.1638  170.9548  -7.556 1016.1749   38.4153  -7.546      143.09 0.177
  999.9164  172.1812  -6.295  999.8724   40.6139  -6.285       55.24 0.424
  951.8398  169.6012  -9.320  951.6393   40.9436  -9.311      803.21 0.037
  383.1462  136.5542  -7.597  380.1611   42.3172  -7.593      192.88 0.270
  578.7164  147.8756  -8.408  576.8699   41.7821  -8.402      357.47 0.072
  848.0786  165.5121  -8.435  847.4895   43.1304  -8.427      313.52 0.079
  898.0393  168.8670  -8.673  897.6378   43.4587  -8.665      360.42 0.097
  124.9367  122.0492  -6.816  120.0815   43.4847  -6.814       80.38 0.287
  970.8104  173.7144  -9.699  970.6643   43.8935  -9.690     1111.90 0.043
  284.6886  132.9356  -8.792  281.0240   44.6706  -8.789      512.48 0.066
  403.3231  140.3792  -8.300  400.4545   44.9089  -8.296      295.38 0.144
   18.2918  117.5568 -10.308   12.5606   45.4628 -10.307     1469.88 0.131
  340.9332  137.5022  -7.597  337.6509   45.8175  -7.593      174.31 0.162
  370.4139  139.5067  -6.412  367.3265   46.0311  -6.408       66.57 0.369
  457.1314  144.5190  -7.228  454.5869   45.7826  -7.223      118.05 0.268
  234.1392  131.8582  -7.315  230.0980   46.6590  -7.313      124.69 0.230
  314.5868  137.0771  -8.391  311.1189   46.9889  -8.387      331.43 0.100
  469.7116  146.3357  -7.292  467.2357   46.8333  -7.287      151.62 0.192
  710.9534  161.2573  -7.429  709.7791   47.1502  -7.423      147.03 0.190
  655.3626  158.6345 -10.223  653.8799   47.8679 -10.217     1929.13 0.034
   68.5743  124.3265 -10.273   63.2303   49.1661 -10.272     1932.61 0.030
  375.8106  143.3497  -8.593  372.7405   49.5355  -8.589      340.76 0.095
  481.3677  148.6691  -6.502  478.9516   48.4545  -6.497       70.98 0.492
  793.7878  167.8721  -6.538  792.9651   48.7488  -6.530       75.99 0.327
  896.9227  173.8344  -7.598  896.4999   48.4711  -7.589      135.06 0.156
  446.9624  148.1871 -10.270  444.3365   50.0530 -10.266     1902.99 0.027
   54.2266  125.2376  -7.877   48.7529   50.9434  -7.877      217.25 0.136
  212.1870  135.2969  -6.587  207.9555   51.4185  -6.585       60.03 0.296
  723.7348  167.3453  -6.444  722.5972   52.4440  -6.437       52.62 0.372
  455.3036  151.3925  -7.771  452.7142   52.7436  -7.767      209.95 0.151
   93.4188  130.1276  -7.735   88.2514   53.4500  -7.734      171.72 0.135
  286.2714  142.6018  -8.281  282.5663   54.2128  -8.278      262.97 0.137
  779.1625  172.6789  -8.908  778.2580   54.4165  -8.901      531.63 0.077
  372.2218  149.7789  -6.493  369.0941   56.1623  -6.489       63.45 0.325
  838.1846  178.0568  -7.707  837.5111   56.2163  -7.699      156.45 0.211
  851.2513  178.6673  -8.394  850.6285   56.0372  -8.386      359.03 0.094
  104.7526  134.0721  -9.614   99.6572   56.6990  -9.613      995.25 0.055
  544.2354  160.8767  -8.207  542.1336   56.8200  -8.202      295.40 0.172
 1013.0914  190.0013  -8.269 1013.0342   57.5565  -8.260      279.95 0.095
  137.5702  137.7760  -8.690  132.7258   58.4075  -8.688      415.27 0.080
  203.8456  140.9821  -8.938  199.5161   57.5937  -8.936      475.01 0.087
  350.7622  150.7125  -9.542  347.4802   58.3927  -9.539      783.98 0.037
  404.0139  153.1492  -9.074  401.0854   57.5969  -9.070      587.39 0.060
  246.6492  145.2088  -8.433  242.6302   59.2139  -8.431      325.26 0.104
  463.4394  158.2133 -10.794  460.8673   59.0501 -10.789     3282.53 0.035
  556.7080  165.0944  -8.778  554.6592   60.2682  -8.773      427.14 0.163
  604.0690  167.2520  -8.085  602.2770   59.5538  -8.080      243.40 0.117
  653.2283  170.8455 -10.189  651.6834   60.1614 -10.183     1756.89 0.029
 1005.9259  192.5775  -7.574 1005.8376   60.5525  -7.565      158.93 0.148
  301.6120  151.4747  -8.837  297.9729   62.1304  -8.834      553.46 0.069
  547.4038  165.7319  -9.048  545.2983   61.4662  -9.043      514.66 0.056
  512.7149  165.0241  -7.235  510.4091   62.8586  -7.230      122.25 0.291
  535.2790  166.2416  -7.989  533.1001   62.7075  -7.984      270.27 0.157
  165.5325  144.8387 -14.102  160.8750   63.7596 -14.100    65461.65 0.029
  444.1340  161.5198 -10.613  441.4247   63.5134 -10.609     2056.14 0.041
   61.4753  139.9003  -6.273   55.9739   65.1344  -6.272       54.56 0.353
  978.6155  197.2118  -7.910  978.4214   66.8125  -7.901      216.34 0.122
  511.6375  171.0159  -8.876  509.2971   68.8948  -8.872      535.72 0.069
  582.8393  175.4515  -8.797  580.8931   69.0075  -8.792      533.23 0.067
  612.6726  177.2463  -7.104  610.8842   68.9910  -7.099      120.83 0.230
  782.8775  187.5567  -8.562  781.9335   69.0096  -8.555      449.88 0.096
   15.1865  141.8321  -9.251    9.2721   69.8712  -9.251      769.47 0.055
   81.9727  146.6535  -7.769   76.6071   70.6309  -7.769      163.17 0.156
  590.5948  177.6361  -6.819  588.6825   70.7150  -6.814       92.74 0.261
  225.6546  156.7047  -6.997  221.4086   71.9515  -6.995       96.04 0.274
  432.7807  168.9450  -8.050  429.9622   71.6021  -8.046      226.66 0.148
  840.6103  193.6647  -8.211  839.8911   71.6118  -8.203      274.93 0.131
  896.7532  197.6455 -11.198  896.2487   72.1876 -11.189     4540.67 0.020
  984.3787  202.3797  -6.554  984.1880   71.6094  -6.545       62.04 0.476
  796.2303  193.1615  -7.882  795.3244   73.7865  -7.874      191.46 0.149
  282.3550  163.0535  -7.952  278.5102   74.8442  -7.949      212.60 0.118
  601.9129  182.4614  -7.450  600.0425   74.8382  -7.445      157.68 0.196
  665.8923  186.9475 -10.989  664.3460   75.4373 -10.983     3003.87 0.100
  217.0512  160.6003  -6.269  212.7155   76.3585  -6.267       55.95 0.445
  595.6411  183.6530  -6.783  593.7306   76.4050  -6.778       91.54 0.339
  784.2250  194.9204 -10.990  783.2594   76.2624 -10.983     3631.14 0.036
  138.2704  156.0437  -6.910  133.3240   76.5880  -6.909       87.31 0.213
  729.8306  192.5772  -7.553  728.6226   77.2098  -7.546      155.83 0.217
  395.0699  173.0473  -8.990  391.9800   77.9765  -8.986      621.73 0.067
  573.5864  183.5175 -10.743  571.5516   77.6045 -10.738     2509.61 0.020
  590.3954  184.7900  -8.160  588.4504   77.8554  -8.154      252.52 0.140
  430.9243  176.0748 -10.404  428.0585   78.8224 -10.400     2347.64 0.044
  926.0000  206.4667  -6.580  925.5812   79.2039  -6.572       57.95 0.443
   53.9202  155.3145  -8.732   48.2572   80.9735  -8.732      466.11 0.068
  196.0189  164.3803  -8.468  191.4938   81.4047  -8.467      310.30 0.070
  525.6211  184.8294  -6.667  523.2992   81.8150  -6.662       86.09 0.478
  322.8937  173.4173  -7.414  319.2937   82.7209  -7.411      138.88 0.164
  680.3988  196.8010  -9.563  678.8866   84.3770  -9.557      975.27 0.057
  732.3695  199.3817  -9.343  731.1469   83.8352  -9.337      873.18 0.061
  104.0963  162.7970  -9.377   98.8222   85.3972  -9.376      820.67 0.060
  858.5287  207.9013  -8.311  857.8325   84.7081  -8.303      297.86 0.131
  623.1810  195.0922  -6.562  621.3730   86.1369  -6.556       70.00 0.494
  277.8069  174.7695  -8.603  273.8643   86.8042  -8.601      420.15 0.084
  317.2068  177.3627  -9.287  313.5446   87.0003  -9.284      741.45 0.069
  517.2216  189.6052  -9.863  514.8275   87.0833  -9.859     1366.24 0.049
  886.5641  211.5883 -10.514  885.9706   86.6863 -10.506     2464.67 0.036
  977.6389  217.4618  -7.229  977.3766   87.0315  -7.220      114.33 0.238
  357.7224  180.8857  -7.875  354.3329   88.0563  -7.872      184.69 0.348
  907.4963  213.9909  -9.006  906.9795   87.8137  -8.998      649.98 0.054
   53.6860  163.0002  -7.378   47.9732   88.6576  -7.378      125.60 0.180
  616.3910  197.1715  -7.696  614.5367   88.6198  -7.691      146.26 0.168
  244.0880  175.9445  -7.254  239.8793   90.0222  -7.252      122.00 0.206
  426.5655  186.5448 -10.274  423.6193   89.5249 -10.271     1595.38 0.048
  174.0295  172.2334  -8.636  169.2823   90.5711  -8.635      375.35 0.074
  265.3959  178.1473  -9.414  261.3401   90.9262  -9.412      876.75 0.057
  328.4382  183.1213  -8.215  324.8274   92.0618  -8.212      297.07 0.100
  743.0930  209.1914  -7.894  741.8833   92.9602  -7.888      233.42 0.154
  144.5003  174.0339  -7.996  139.4996   94.1581  -7.995      224.55 0.128
  341.9651  186.2497  -9.108  338.4355   94.3611  -9.105      544.60 0.063
  535.8832  197.8130  -6.201  533.5623   94.1333  -6.196       47.41 0.469
  833.6840  215.4630  -9.013  832.8581   93.7379  -9.006      595.10 0.066
  666.9056  207.0676  -9.869  665.2812   95.4229  -9.863     1160.89 0.034
  704.5216  208.7642  -6.132  703.1256   94.8641  -6.126       51.65 0.426
  857.9964  218.7872  -8.147  857.2599   95.5809  -8.140      274.13 0.163
   37.6850  170.8297  -6.348   31.7811   97.4427  -6.348       49.62 0.392
  362.1479  189.8201  -5.989  358.7434   96.6972  -5.985       36.20 0.440
  468.7733  196.7621 -12.747  466.0475   97.1528 -12.743    19776.47 0.021
  582.4508  204.2460  -7.441  580.3745   97.7245  -7.436      138.53 0.189
  952.4259  227.1261  -6.198  952.0397   98.1775  -6.189       49.73 0.420
  961.7286  228.8585  -8.003  961.3715   99.3403  -7.994      208.08 0.161
 1010.8582  231.4258  -9.176 1010.6658   98.9270  -9.167      698.99 0.075
  116.8049  178.1790  -6.941  111.5468   99.9744  -6.940       87.20 0.254
  404.2221  195.5934  -9.996  401.0805   99.9020  -9.993     1589.72 0.035
  753.0068  217.3367  -9.651  751.8126  100.4760  -9.644      978.48 0.040
  101.4238  177.8156  -6.427   96.0363  100.5453  -6.427       50.47 0.352
  206.7967  186.0940  -8.627  202.2351  102.4097  -8.625      390.70 0.076
  629.3424  211.9293  -5.674  627.4960  102.5418  -5.668       26.76 0.497
  645.3925  212.8326  -6.886  643.6296  102.4700  -6.881       80.57 0.284
  476.8280  202.9010 -10.556  474.1233  102.7844 -10.552     2593.29 0.042
  257.5713  190.8939  -6.687  253.3852  104.1148  -6.685       63.95 0.366
 1003.9961  235.9354  -9.672 1003.7665  103.8315  -9.663     1089.10 0.073
  792.5812  224.9149  -5.995  791.5411  105.6345  -5.988       36.26 0.353
  173.0129  188.8322  -6.405  168.1615  107.1919  -6.404       66.06 0.401
  230.7305  192.0372  -8.883  226.3271  106.8849  -8.882      548.55 0.061
  514.6819  209.5485  -7.224  512.1792  107.1153  -7.220      119.16 0.196
  213.4361  192.3852  -9.679  208.8926  108.2823  -9.678     1085.55 0.067
  249.6911  193.8180  -8.054  245.4275  107.5100  -8.052      198.18 0.111
   22.4379  181.2727  -8.494   16.3383  108.7904  -8.494      374.30 0.111
   75.0496  185.1251  -8.851   69.3886  109.4412  -8.851      426.18 0.090
  922.1703  236.0698  -9.835  921.6379  108.9127  -9.827     1287.41 0.041
  570.9147  216.6246  -6.380  568.7161  110.7601  -6.376       56.50 0.465
  740.6816  226.5186  -6.746  739.3930  110.3684  -6.740       66.50 0.287
   55.5771  185.6929  -8.702   49.7403  111.1908  -8.702      496.45 0.082
  194.9023  193.4508  -8.509  190.2026  110.4709  -8.508      355.50 0.087
   93.2378  190.1874  -7.134   87.7048  113.3885  -7.134       89.63 0.233
  586.1626  220.0825  -7.656  584.0374  113.2826  -7.651      170.24 0.198
  547.9086  218.5701 -10.145  545.5648  114.0932 -10.141     1602.25 0.051
  564.7538  219.4812  -6.744  562.5062  113.9805  -6.739       75.78 0.287
  595.7467  220.9437  -7.979  593.6729  113.5603  -7.974      189.94 0.141
  703.9679  228.1856  -6.988  702.4912  114.2491  -6.982       92.27 0.254
 1020.4203  246.3544  -6.229 1020.2139  113.2116  -6.220       54.57 0.402
  139.4373  194.4712  -7.211  134.2739  114.8569  -7.210      124.26 0.168
  892.6751  241.2381 -12.654  892.0056  115.8437 -12.646    18109.90 0.024
   49.3972  191.3708  -9.434   43.4701  117.2335  -9.434      799.74 0.051
  646.0027  227.5358  -7.518  644.1812  117.0854  -7.513      157.06 0.179
  349.4681  210.2111 -10.061  345.8675  117.8026 -10.058     1575.61 0.036
  436.1939  217.4104  -6.431  433.1573  119.7167  -6.427       58.31 0.450
  241.8324  207.0062 -10.320  237.4340  121.1430 -10.318     1864.43 0.027
  406.3743  217.1578  -8.442  403.1386  121.2755  -8.439      352.39 0.146
  747.9243  237.8570  -6.553  746.6268  121.2275  -6.547       58.68 0.341
  935.3847  248.6060  -7.872  934.8627  120.5978  -7.864      194.20 0.133
  147.3225  201.8359  -6.171  142.1821  121.7266  -6.170       44.60 0.395
  456.8511  221.6919  -6.504  453.9281  122.7314  -6.500       70.00 0.356
  696.5413  236.3649 -11.546  694.9515  122.8222 -11.540     6470.36 0.034
  724.9537  238.2604  -9.340  723.5422  123.0189  -9.334      762.73 0.048
  268.1985  211.2460  -6.423  263.9839  123.7707  -6.421       64.03 0.434
  358.6702  217.1134 -12.296  355.0999  124.1279 -12.294    12910.81 0.027
  373.5790  217.7433  -6.909  370.1115  123.8508  -6.906       95.05 0.374
  111.5009  202.2407  -6.532  106.0533  124.3077  -6.531       70.67 0.440
  248.5388  211.6138  -8.867  244.1680  125.3321  -8.866      500.29 0.076
  860.9722  249.5008 -10.723  860.1407  125.9910 -10.716     3036.90 0.038
  182.6921  209.2009  -6.197  177.8029  126.9262  -6.196       53.94 0.378
  816.7163  247.5407  -6.994  815.7010  126.7146  -6.988       93.76 0.325
   42.2127  201.3652  -6.616   36.1586  127.6466  -6.616       68.34 0.297
  385.9319  222.3830 -10.439  382.5278  127.7280 -10.436     1948.93 0.035
  418.5375  225.9955  -9.995  415.3407  129.3506  -9.992     1351.58 0.042
   21.2261  202.9588  -7.341   14.9773  130.5087  -7.341      123.53 0.182
  556.5993  234.7619  -9.134  554.2341  129.7060  -9.129      686.62 0.068
  797.3051  249.7403  -7.474  796.1944  130.0802  -7.467      146.59 0.167
  194.1366  213.8348  -6.932  189.3145  130.8540  -6.931       84.97 0.336
  598.7461  239.0473  -6.497  596.6100  131.4224  -6.492       63.48 0.340
  697.0587  244.3201 -11.810  695.4395  130.7186 -11.805     6991.56 0.045
  430.2763  228.9443 -10.186  427.1434  131.5779 -10.183     1621.56 0.049
  514.6403  234.4771  -7.090  512.0207  131.9683  -7.086      124.52 0.260
  490.1487  234.0673  -9.112  487.3785  133.0478  -9.108      612.97 0.067
  818.4895  255.1103  -9.331  817.4547  134.1484  -9.324      724.90 0.074
   50.6663  209.4214  -8.924   44.6384  135.1745  -8.924      561.87 0.095
  314.5962  225.6777 -10.784  310.6591  135.3481 -10.782     2697.61 0.061
  637.2218  244.8533  -6.566  635.2787  134.8769  -6.561       76.66 0.381
  995.7681  266.1282  -7.925  995.4155  134.3934  -7.917      197.05 0.096
  128.8480  216.3609  -6.612  123.4652  137.3446  -6.611       58.59 0.290
  291.4080  226.1045  -9.960  287.2925  137.1830  -9.958     1465.45 0.034
  436.5321  234.6680  -6.705  433.4124  136.9058  -6.701       68.11 0.335
  565.3405  242.3620  -7.218  562.9933  136.7519  -7.213      117.31 0.225
   26.9634  211.1021  -7.625   20.7160  138.2887  -7.626      147.33 0.203
  219.9075  222.8385  -7.941  215.2450  138.2707  -7.939      219.08 0.129
  512.0454  240.7749  -8.701  509.3803  138.4045  -8.697      352.29 0.102
  975.3637  268.4088 -12.955  974.9299  137.9006 -12.946    23899.88 0.045
  382.9632  234.3656  -7.305  379.4770  139.8596  -7.302      135.64 0.267
  480.9998  240.0535 -10.070  478.1430  139.5725 -10.067     1493.90 0.039
  937.5829  268.2878  -8.155  937.0046  140.0669  -8.147      289.41 0.101
  957.3153  269.2516  -6.942  956.8107  139.8324  -6.934      106.40 0.233
   54.4229  215.5173  -6.160   48.3910  141.0312  -6.160       51.41 0.410
  893.8288  266.2297  -7.635  893.0790  140.6656  -7.628      160.36 0.206
  999.6331  272.5813  -7.414  999.2741  140.5855  -7.406      138.85 0.169
  462.5875  241.6532  -6.861  459.6044  142.2872  -6.857       86.21 0.334
  841.4633  264.7195  -7.109  840.4950  142.3310  -7.102       89.28 0.248
  854.7425  265.7502  -6.899  853.8278  142.5542  -6.892       74.44 0.445
  888.1585  267.6800  -8.191  887.3799  142.4535  -8.183      235.51 0.117
  286.0447  232.8947  -9.302  281.8513  144.2830  -9.300      747.81 0.061
  418.3005  240.8967  -8.702  415.0274  144.2265  -8.698      457.48 0.093
  613.1794  252.3271  -8.022  611.0686  143.7842  -8.017      257.59 0.122
  803.0648  263.7748  -7.445  801.9286  143.7142  -7.439      117.41 0.265
   30.8155  217.8105  -8.786   24.5547  144.7577  -8.786      425.90 0.064
  400.8116  240.5659  -6.612  397.4192  144.9593  -6.609       65.94 0.289
  696.0251  258.9193  -7.481  694.3417  145.3311  -7.476      152.74 0.200
  587.4299  253.1372  -7.097  585.1659  146.1535  -7.093      112.26 0.313
  725.0439  261.0370 -11.770  723.5430  145.7107 -11.764     6638.23 0.027
  539.8103  250.8820  -6.678  537.2692  146.7941  -6.674       67.23 0.254
  144.2795  228.6835  -6.229  138.9558  148.7037  -6.229       51.84 0.458
  774.1534  267.0516  -7.747  772.8700  148.7299  -7.740      208.61 0.154
  120.2767  228.5434  -6.110  114.7477  150.0250  -6.109       37.22 0.394
  563.4127  255.2375  -8.731  560.9960  149.7043  -8.726      451.76 0.091
  202.1579  234.1292  -6.593  197.2864  150.6157  -6.592       65.67 0.304
  657.5759  262.0178  -8.208  655.6732  150.7511  -8.203      280.36 0.146
  270.5172  239.5870  -8.757  266.1664  151.9040  -8.756      451.42 0.137
  626.9586  261.8685  -6.035  624.8853  152.4595  -6.030       46.75 0.428
  128.5056  233.3390  -6.215  123.0191  154.3104  -6.214       59.37 0.413
  934.0772  283.2984  -6.078  933.4355  155.2304  -6.070       42.16 0.347
 1019.2115  289.2413  -6.661 1018.8699  155.9895  -6.652       76.21 0.386
   23.2273  229.5513  -7.013   16.8279  156.9327  -7.014      113.63 0.258
  627.1140  267.0068  -7.336  625.0197  157.5721  -7.331      121.14 0.187
  824.2173  279.3988  -9.598  823.1202  158.0001  -9.592     1091.03 0.041
  684.7523  272.0555  -7.331  682.9557  159.1078  -7.326      132.58 0.235
  952.8981  287.6930 -12.177  952.3163  158.4679 -12.169     9336.86 0.020
  160.7983  242.6172  -9.026  155.5333  161.6040  -9.026      507.72 0.063
  182.5894  244.5818  -8.505  177.4962  162.2375  -8.505      336.75 0.102
  152.9741  243.4285  -7.110  147.6379  162.8904  -7.110      122.18 0.258
  330.6501  254.1719  -8.650  326.6823  162.7981  -8.648      400.86 0.095
  378.2430  257.0301  -8.344  374.6074  162.7545  -8.341      290.26 0.116
   41.2594  237.9787  -8.207   34.9680  164.2578  -8.207      285.11 0.087
  944.1211  293.0952  -7.742  943.4872  164.3807  -7.735      151.68 0.250
  978.6393  295.6295  -6.805  978.1308  164.8141  -6.797       93.68 0.267
  362.5970  259.6075  -8.460  358.8354  166.2774  -8.458      378.83 0.077
  734.9310  282.0427  -8.918  733.3976  166.0464  -8.912      500.54 0.076
  814.7440  288.8839  -6.580  813.5695  168.0252  -6.574       67.87 0.267
   79.8441  245.4205  -6.836   73.8568  169.3355  -6.836       87.18 0.294
   86.2187  245.4161  -6.602   80.2885  168.9425  -6.602       68.93 0.257
  118.6569  247.3494  -9.201  113.0015  168.8951  -9.201      756.57 0.055
  765.4752  286.5152 -10.632  764.0762  168.6518 -10.626     2665.47 0.028
  969.8884  299.0220  -7.478  969.3358  168.7235  -7.470      147.64 0.258
  992.9554  301.1773  -6.477  992.4826  169.4711  -6.469       54.76 0.403
  882.2769  296.1252  -6.807  881.3757  171.1467  -6.800       72.63 0.376
  929.5698  298.5732  -6.826  928.8593  170.7194  -6.819      100.39 0.295
  262.3166  259.4101 -10.905  257.7928  172.1825 -10.904     3540.79 0.024
  418.3410  268.5938  -9.261  414.9296  171.8507  -9.258      786.38 0.102
  963.5752  303.3999  -6.462  962.9841  173.4668  -6.454       66.83 0.386
  585.8214  281.0702 -12.625  583.4244  174.0995 -12.621    15733.21 0.023
  290.2455  263.6187  -9.344  285.9195  174.6827  -9.343      758.97 0.136
  861.9256  298.9812 -10.285  860.9254  175.2263 -10.278     2049.66 0.031
  205.9343  259.6560 -10.659  200.9496  175.8609 -10.658     2931.04 0.041
  277.7107  265.2173 -11.480  273.2775  177.0412 -11.479     5934.41 0.025
  939.2192  305.3068  -7.881  938.5256  176.8426  -7.873      198.79 0.157
  163.8348  259.5254  -6.582  158.4976  178.2968  -6.582       59.68 0.316
  306.2011  269.3836  -9.637  301.9684  179.4646  -9.636     1000.07 0.043
  493.2930  280.6059  -9.194  490.3217  179.2648  -9.190      664.67 0.068
  786.1301  298.4867  -9.746  784.7859  179.3306  -9.740     1110.52 0.088
  801.4564  299.1433  -6.787  800.1824  179.0552  -6.781       82.33 0.278
  131.5919  259.5795  -8.920  125.9771  180.3171  -8.920      559.21 0.057
 1010.4818  313.1772  -9.554 1010.0357  180.3585  -9.546      896.42 0.081
  237.1391  266.9391  -8.952  232.3707  181.2306  -8.951      496.94 0.075
  346.0874  273.2159  -6.245  342.1344  180.8600  -6.243       53.14 0.339
  411.3067  277.1313  -7.933  407.8039  180.7959  -7.930      244.69 0.129
  970.6346  311.7724  -8.634  970.0442  181.3788  -8.627      410.84 0.079
  937.6753  310.5598  -7.809  936.9581  182.1693  -7.801      232.48 0.217
  281.4190  271.7589  -8.557  276.9796  183.3443  -8.556      408.50 0.122
  689.6554  297.1667  -6.451  687.7842  183.8437  -6.446       51.28 0.271
   28.0591  257.7284  -8.585   21.5272  184.7734  -8.586      346.27 0.082
   97.2980  262.4459  -6.591   91.3644  185.2711  -6.592       64.42 0.361
  127.1212  263.5960  -8.394  121.4439  184.6001  -8.394      289.71 0.120
  606.6287  294.6747  -9.941  604.2965  186.4026  -9.937     1742.15 0.355
  206.2766  272.9814  -6.338  201.2195  189.1433  -6.337       50.24 0.448
  261.8161  276.5780 -10.801  257.1942  189.3487 -10.800     3041.75 0.024
  131.8673  268.6942  -7.490  126.2015  189.4013  -7.490      117.30 0.267
  294.9228  279.4956  -9.080  290.5479  190.2434  -9.079      586.47 0.093
  939.5987  319.6138  -8.127  938.8596  191.0727  -8.120      298.34 0.083
  288.2641  280.9092 -11.163  283.8292  192.0602 -11.162     3731.94 0.255
  334.9269  284.1511  -7.232  330.8337  192.4521  -7.230      129.03 0.296
  578.2332  298.2053  -7.477  575.7145  191.6494  -7.473      152.08 0.183
  796.7093  312.1398  -7.462  795.3648  192.2967  -7.456      133.94 0.201
   81.8471  269.3213  -9.950   75.7336  193.0796  -9.951     1490.70 0.055
  317.4870  283.2665  -9.223  313.2666  192.6320  -9.221      697.00 0.045
  686.4636  306.6534  -7.694  684.5372  193.4964  -7.690      160.08 0.163
  192.8454  277.0103  -8.900  187.6530  193.9847  -8.900      501.18 0.073
  898.6800  320.5686  -7.679  897.7656  194.5075  -7.672      173.87 0.177
  787.6740  314.7831 -10.076  786.2764  195.4799 -10.070     1320.08 0.059
  462.6055  296.6070  -8.672  459.3569  197.0981  -8.669      413.58 0.103
  100.0946  275.7905  -9.958   94.1063  198.4263  -9.959     1153.83 0.234
  770.2890  316.1773  -9.308  768.8015  197.9252  -9.302      831.90 0.070
  487.1446  300.5054  -9.171  484.0392  199.4904  -9.167      628.85 0.055
  601.9371  306.6124  -6.953  599.5253  198.5932  -6.948       83.57 0.172
  521.6916  303.0239  -6.423  518.7964  199.8956  -6.419       54.97 0.361
  857.6483  324.1340  -6.381  856.5402  200.5518  -6.374       52.50 0.415
  954.2816  329.6219  -9.300  953.5694  200.1524  -9.293      742.39 0.095
   62.4010  276.4282  -9.971   56.0676  201.3641  -9.972     1428.85 0.027
  586.3055  308.1089  -7.757  583.7924  201.0363  -7.753      197.64 0.199
  469.2054  303.0289  -6.917  465.9699  203.1023  -6.914      110.04 0.285
  715.6101  318.5823  -6.631  713.8347  203.6438  -6.626       61.20 0.386
  921.6612  330.1597  -7.508  920.8127  202.6690  -7.501      155.56 0.189
  405.7851  299.9882  -7.966  402.1296  203.9371  -7.964      257.31 0.129
  533.6010  308.7012  -7.637  530.7548  204.8328  -7.633      178.86 0.132
  350.9716  299.0992  -6.878  346.9206  206.3917  -6.876       72.32 0.278
  941.7359  334.3229  -6.550  940.9573  205.5979  -6.543       68.61 0.312
   40.1062  281.7240 -11.319   33.5344  208.0147 -11.320     4701.79 0.032
   53.2181  282.0785  -8.716   46.7658  207.5680  -8.717      415.81 0.100
  122.2855  286.6957  -8.341  116.4296  207.9621  -8.341      302.38 0.076
  232.5614  293.7624  -7.017  227.6063  208.2876  -7.016       83.23 0.222
  957.7213  337.3376  -6.291  956.9980  207.6307  -6.284       49.71 0.388
  485.4168  309.5992  -7.874  482.2570  208.6681  -7.871      192.08 0.122
  686.0077  322.1046  -6.601  684.0170  208.9313  -6.596       62.50 0.349
  455.8290  308.9427  -7.190  452.4755  209.8186  -7.187       99.50 0.275
  842.2494  333.4392  -6.779  841.0391  210.7612  -6.772       60.52 0.485
  917.0945  336.8107  -8.418  916.2043  209.5737  -8.411      355.06 0.142
  971.7470  340.4668 -11.726  971.0696  209.8963 -11.719     7719.98 0.027
  991.1639  341.5483  -8.046  990.5583  209.7935  -8.038      229.42 0.125
  763.8150  329.0609  -6.750  762.2465  211.1618  -6.745       83.26 0.376
  835.6513  333.6078  -6.178  834.4102  211.3300  -6.171       46.28 0.466
  646.2683  322.9919  -8.220  644.0485  212.2331  -8.216      299.25 0.081
  349.9822  305.4277  -6.420  345.8910  212.7680  -6.418       64.42 0.350
  527.5976  316.2537  -9.330  524.6785  212.7332  -9.327      792.67 0.062
  239.7191  300.3130  -8.924  234.7867  214.3909  -8.924      490.51 0.085
  263.6886  301.0795  -6.564  258.9478  213.6931  -6.563       80.85 0.289
  621.6724  323.2206  -7.971  619.3072  213.9575  -7.967      234.86 0.079
  784.9212  333.1738  -7.484  783.4416  213.9795  -7.478      144.81 0.198
  192.0802  297.8312 -10.285  186.7630  214.8212 -10.285     1937.02 0.042
  271.6303  302.4425 -10.612  266.9462  214.5691 -10.611     2351.48 0.042
  412.3885  311.0282  -6.168  408.7253  214.5505  -6.166       50.67 0.495
  707.6429  329.2228 -11.804  705.7834  214.7371 -11.800     7807.54 0.032
  888.6139  340.6597  -9.014  887.5863  215.1404  -9.007      558.83 0.079
   45.5020  291.4271  -8.740   38.9209  217.3767  -8.741      447.70 0.070
  773.9923  335.2268  -6.041  772.4512  216.6903  -6.035       35.97 0.494
  714.3527  333.0669  -9.105  712.5138  218.1621  -9.100      601.14 0.128
  749.8353  335.0890  -7.860  748.1733  218.0212  -7.855      218.60 0.142
   18.6637  291.0822  -6.415   11.8335  218.6596  -6.417       63.11 0.391
  197.3499  302.8946 -11.031  192.0485  219.5556 -11.031     3590.34 0.033
  330.8192  312.6155  -8.271  326.5456  221.1113  -8.270      286.36 0.094
  429.3453  318.6888  -8.887  425.7635  221.1597  -8.884      553.58 0.071
   69.7954  297.7235  -6.019   63.4006  222.1817  -6.020       44.10 0.451
  122.7593  300.1724  -6.711  116.8281  221.3922  -6.712       70.33 0.348
  182.6691  305.9033  -7.116  177.2260  223.4566  -7.116      105.97 0.202
  608.7202  331.3292  -6.395  606.2424  222.8334  -6.391       58.61 0.286
  766.4189  341.2651  -9.918  764.8173  223.1706  -9.913     1369.95 0.062
  412.6577  320.5886  -8.603  408.9491  224.0740  -8.601      309.81 0.373
  545.7800  328.7534  -7.967  542.9203  224.0956  -7.964      244.07 0.132
  647.2144  336.3977  -8.167  644.9444  225.5458  -8.163      275.03 0.131
  746.9088  343.0365  -6.839  745.2014  226.1230  -6.833       84.20 0.378
  972.1492  357.0238  -7.407  971.4208  226.3680  -7.400      126.89 0.175
  514.4377  329.4510  -7.792  511.3733  226.7029  -7.789      204.16 0.223
  573.0512  333.1164  -6.919  570.3454  226.7877  -6.916       98.38 0.255
  176.5787  311.5049  -8.968  171.0515  229.4227  -8.969      520.49 0.079
  168.8533  311.1288  -8.638  163.2618  229.5190  -8.638      371.92 0.092
  984.9853  361.5240  -6.043  984.2935  230.0709  -6.036       43.21 0.449
 1010.7611  363.6406  -9.016 1010.1610  230.6108  -9.008      575.40 0.049
   19.7461  306.6056  -8.343   12.8287  234.1006  -8.345      337.79 0.095
  398.3397  329.8806  -6.607  394.4812  234.2210  -6.605       69.62 0.371
  771.9005  352.8988  -8.300  770.2823  234.4363  -8.295      280.56 0.173
   83.9536  311.6015  -8.017   77.6047  235.1787  -8.018      217.86 0.124
  115.5166  313.3945  -8.865  109.4427  235.0407  -8.866      483.92 0.058
  512.9300  337.7046  -6.789  509.8174  235.0300  -6.786       92.97 0.368
  563.5545  341.6818  -8.218  560.7502  235.9111  -8.215      292.42 0.110
  922.0246  363.5474  -9.327  921.0660  235.9182  -9.321      840.09 0.054
   26.6435  310.5818  -7.634   19.7671  237.6516  -7.635      163.13 0.106
  324.0829  329.3179  -7.881  319.6695  238.1950  -7.879      192.72 0.117
  409.8009  334.7620  -6.238  406.0014  238.3928  -6.236       63.95 0.424
  269.8737  326.4741  -7.615  265.0444  238.6688  -7.615      184.05 0.197
  571.2641  344.8605  -8.433  568.4947  238.6127  -8.430      292.32 0.079
  335.9448  331.7711  -7.112  331.6099  239.9191  -7.111      111.75 0.254
  956.4675  370.1185  -8.295  955.6334  240.3702  -8.289      248.79 0.116
  523.1421  344.7546 -11.093  520.0626  241.4407 -11.090     3665.23 0.053
  654.2223  351.9213  -7.017  651.9291  240.6028  -7.013       97.07 0.243
  764.6889  358.6417 -11.326  763.0128  240.6011 -11.321     4873.48 0.036
  987.4873  372.3820  -9.900  986.7713  240.7373  -9.892     1347.01 0.034
   57.7477  316.6923  -8.002   51.1261  241.8660  -8.003      220.10 0.160
  869.1736  365.8635  -9.268  867.9695  241.4447  -9.262      658.74 0.055
  242.9491  329.5104  -7.032  237.8819  243.3467  -7.032       86.49 0.270
  378.7231  337.0357  -8.304  374.6842  242.5604  -8.303      254.24 0.100
  698.0482  356.7156  -6.903  695.9872  242.7155  -6.898       98.81 0.348
  707.3242  357.6659  -6.243  705.3510  243.1192  -6.239       65.90 0.476
  998.5135  375.4109  -6.705  997.8307  243.0839  -6.698       78.82 0.273
   50.0140  319.1738  -7.243   43.3050  244.8178  -7.244      124.38 0.206
   13.9780  318.9010  -9.175    6.9277  246.7366  -9.176      708.56 0.048
  110.4002  324.5969  -6.318  104.2139  246.5431  -6.319       47.95 0.386
  150.1070  327.3640  -9.030  144.2583  246.8796  -9.030      602.13 0.073
  454.8959  345.9167  -6.348  451.3577  246.7696  -6.346       50.43 0.440
  657.4166  358.3334  -6.855  655.1157  246.8041  -6.851       93.34 0.292
  770.4474  365.2987  -9.781  768.7752  246.8885  -9.776     1268.29 0.048
  356.8324  341.6501 -10.029  352.6055  248.5041 -10.028     1235.72 0.036
  671.7957  360.0288  -6.795  669.5718  247.6192  -6.791       78.89 0.265
  632.1578  359.7015  -8.048  629.7009  249.7080  -8.044      246.62 0.107
  681.3503  364.1168  -8.381  679.1650  251.1147  -8.377      337.81 0.095
  174.5130  333.7891  -8.417  168.8402  251.8052  -8.418      384.69 0.109
  249.0419  338.6293  -7.097  243.9749  252.0800  -7.097      110.78 0.209
  253.9627  339.0942  -6.816  248.9338  252.2432  -6.815       83.86 0.372
  593.5290  360.0715 -12.137  590.8329  252.4315 -12.134     9933.95 0.021
  870.7987  376.1907  -7.641  869.5659  251.6406  -7.635      137.47 0.175
  693.7159  366.7196  -7.367  691.5909  252.9574  -7.363      130.04 0.178
  856.2721  376.9072  -5.892  854.9706  253.2391  -5.886       39.77 0.484
   54.2684  329.1288 -11.111   47.5384  254.5030 -11.113     3215.43 0.025
  559.7492  359.7151  -6.516  556.8394  254.1353  -6.513       75.50 0.465
  894.9056  379.8003  -6.167  893.7717  253.7695  -6.161       53.93 0.429
  985.1300  385.0249  -7.215  984.3652  253.4789  -7.208       93.99 0.170
  914.4487  381.8834  -7.736  913.3954  254.6549  -7.729      163.63 0.123
  776.4900  375.9726  -6.971  774.8082  257.1640  -6.966       94.43 0.241
  482.5819  359.8189  -6.338  479.1649  258.9515  -6.336       65.64 0.380
  194.4574  343.6926  -8.441  188.9001  260.4777  -8.441      311.43 0.106
  284.3633  350.7249  -8.094  279.5201  261.9967  -8.094      254.18 0.098
  934.3855  390.2118  -6.273  933.3921  261.7408  -6.266       39.73 0.420
  948.6665  391.1191  -6.214  947.7316  261.7744  -6.207       50.64 0.426
  500.1135  365.0633  -8.666  496.7888  263.1135  -8.663      460.39 0.055
  133.2892  343.7657  -7.972  127.1955  264.2917  -7.973      238.52 0.122
  142.2045  343.7319  -9.220  136.1906  263.7127  -9.220      684.83 0.086
  230.4623  349.0964  -7.738  225.1819  263.6704  -7.738      189.96 0.180
  338.3473  355.4365  -6.516  333.9071  263.3974  -6.515       57.67 0.441
  547.5127  368.9101  -9.407  544.4813  264.0567  -9.404      807.06 0.061
  926.9447  392.9131  -9.809  925.9099  264.8870  -9.802     1372.91 0.049
  258.2111  352.7395  -6.143  253.1425  265.6095  -6.143       43.55 0.431
  353.0265  359.2317  -8.527  348.6798  266.2882  -8.526      356.01 0.071
  515.8850  368.7840  -8.707  512.6467  265.8625  -8.705      422.32 0.100
  791.7127  385.8665  -8.343  790.0703  266.1029  -8.338      318.11 0.094
  880.9419  391.2092  -7.734  879.7041  265.9944  -7.728      181.39 0.167
  965.9532  396.7022 -10.623  965.0732  266.2848 -10.617     2612.07 0.029
  410.8907  363.6566  -7.469  406.9557  267.1652  -7.467      137.63 0.251
  643.6838  378.9695  -8.578  641.2158  268.2273  -8.574      396.93 0.080
  733.5518  384.3847  -6.570  731.6152  268.1685  -6.565       61.63 0.398
  981.1834  398.8592  -8.088  980.3594  267.5058  -8.081      207.55 0.124
   20.6071  341.9783  -8.047   13.4757  269.3888  -8.049      208.86 0.107
   45.6857  345.6996  -7.347   38.7734  271.5842  -7.349      133.52 0.189
   55.7301  346.6529  -8.267   48.9069  271.9219  -8.269      341.56 0.101
  529.9197  376.2116  -7.360  526.7384  272.4168  -7.357      117.90 0.193
  808.1732  392.9604  -9.652  806.5859  272.1740  -9.647     1006.71 0.046
  896.2618  399.1135  -6.989  895.0678  272.9398  -6.983      109.24 0.232
   84.3741  350.6543  -6.786   77.7942  274.1667  -6.788       77.28 0.377
  711.7425  389.1269  -7.603  709.6697  274.2275  -7.599      153.67 0.176
   75.0760  351.1426  -8.118   68.4068  275.2236  -8.119      239.88 0.093
  294.4882  364.7916  -6.478  289.6512  275.4231  -6.478       51.01 0.492
  260.7372  363.6988  -8.445  255.6295  276.3996  -8.445      327.95 0.099
  681.9126  389.0131  -7.871  679.6307  275.9152  -7.867      200.09 0.168
  339.3173  368.8291 -10.102  334.8148  276.7092 -10.101     1608.78 0.047
  765.2629  396.0526  -8.393  763.4480  277.8727  -8.389      307.04 0.104
  148.8450  358.7232  -6.219  142.8028  278.2824  -6.220       53.93 0.393
  786.9444  397.9963  -7.113  785.2329  278.4897  -7.108      106.91 0.236
  389.7963  375.4079  -7.796  385.6461  280.1867  -7.794      177.92 0.152
   94.5650  358.3179 -10.570   88.0334  281.1998 -10.571     2638.74 0.033
   32.7433  355.0034  -7.688   25.6504  281.6729  -7.690      154.37 0.177
  916.8330  409.6616  -8.282  915.6971  282.1996  -8.276      298.95 0.130
  234.4918  369.5924  -8.442  229.1315  283.8947  -8.442      356.41 0.182
  222.4045  370.2227  -8.675  216.9378  285.2654  -8.676      439.54 0.071
  478.3866  385.9219 -10.184  474.8171  285.2602 -10.182     1732.79 0.043
  496.8868  387.9992  -6.104  493.4326  286.2018  -6.102       41.98 0.459
  562.5627  391.3894  -8.075  559.5289  285.5707  -8.072      229.14 0.116
   97.8611  364.4178 -10.432   91.3235  287.0927 -10.433     1922.31 0.123
  105.7213  364.4606  -7.470   99.2557  286.6542  -7.472      147.37 0.177
  212.0077  371.4521  -6.165  206.4451  287.1310  -6.166       46.67 0.450
  365.9141  380.4101  -6.564  361.5572  286.6433  -6.563       70.77 0.339
  457.5331  387.3830  -7.816  453.8129  287.9947  -7.814      219.82 0.100
  971.6308  418.9494  -7.849  970.7036  288.1122  -7.842      206.46 0.145
  999.6387  420.7911  -7.910  998.8196  288.2387  -7.903      220.60 0.122
  165.5269  370.5249  -7.485  159.5646  289.0514  -7.486      147.31 0.147
  485.5595  389.9132 -10.658  482.0199  288.8054 -10.656     2910.40 0.040
  631.7064  400.0498  -6.525  629.0768  289.9904  -6.522       82.63 0.387
  923.4619  417.4877  -8.929  922.3298  289.5969  -8.923      505.80 0.117
  452.6769  391.4360  -6.392  448.9031  292.3378  -6.391       67.03 0.391
  376.6593  388.1005  -6.061  372.3449  293.6635  -6.060       36.22 0.468
  636.8684  403.5445  -6.870  634.2560  293.1619  -6.867       74.23 0.381
  777.1265  411.6152  -8.218  775.3135  292.6709  -8.214      292.88 0.117
  526.4711  397.1401 -10.498  523.1714  293.5154 -10.495     2100.52 0.053
  856.0071  418.0999  -7.225  854.5587  294.3271  -7.219      100.31 0.209
  735.8036  412.0503  -6.282  733.7706  295.6261  -6.278       43.73 0.417
  828.1772  418.0782 -11.717  826.5959  296.0027 -11.712     6842.42 0.039
  790.2579  416.6656  -7.932  788.4930  296.9071  -7.927      204.58 0.086
  168.1105  379.6224  -7.286  162.1190  297.9818  -7.287      140.60 0.223
  419.1454  394.9590  -7.609  415.1152  297.9079  -7.607      164.00 0.174
  898.6150  424.0376  -5.971  897.3472  297.6455  -5.966       35.59 0.467
  305.0301  388.6950  -7.001  300.1507  298.6476  -7.000       90.31 0.164
  319.4912  390.0762 -10.047  314.7206  299.1402 -10.046     1590.66 0.049
  389.3251  393.9673  -7.966  385.0769  298.7451  -7.965      237.56 0.116
  819.9571  422.6449  -7.727  818.3190  301.0586  -7.722      145.49 0.288
  520.8779  405.4637  -9.965  517.5033  302.1660  -9.963     1295.10 0.049
  328.9545  394.6765  -7.216  324.2348  303.1541  -7.216      113.67 0.190
  553.0185  408.5107  -9.469  549.8453  303.2413  -9.467      874.43 0.074
   70.8686  379.6282  -7.047   63.9879  303.9451  -7.049      107.38 0.166
  278.4774  392.4833  -6.278  273.3603  304.0600  -6.278       67.99 0.483
  731.7641  420.2685  -7.159  729.6761  304.0710  -7.155       97.17 0.293
   16.2366  377.2272  -6.810    8.8456  304.8849  -6.812       85.19 0.323
  666.5415  417.5227  -9.491  664.0519  305.2952  -9.487      896.46 0.049
  581.6649  412.7852  -6.971  578.6622  305.7560  -6.968       82.03 0.291
  271.4295  395.0775  -9.781  266.2400  307.0836  -9.781     1300.99 0.044
  845.2093  429.7355  -8.003  843.6687  306.5890  -7.998      198.12 0.103
  950.5949  436.7449 -10.456  949.5195  307.1383 -10.450     2024.49 0.030
  174.4014  390.2734  -8.832  168.4049  308.2376  -8.833      370.99 0.228
  431.8327  406.0883  -8.882  427.8388  308.2422  -8.881      560.97 0.095
  515.3037  410.4918  -7.905  511.8689  307.5265  -7.903      196.12 0.164
  755.5399  426.0752 -10.381  753.5576  308.4120 -10.376     1718.97 0.041
  183.1987  391.1115  -7.494  177.2750  308.5358  -7.495      136.86 0.189
  584.6988  416.5432  -7.086  581.6995  309.3210  -7.083      109.71 0.241
  250.3138  396.6166  -9.471  244.9389  309.9170  -9.471      991.96 0.064
  501.6692  411.8460  -7.397  498.1361  309.7131  -7.395      126.43 0.209
  812.9153  430.8311  -9.765  811.2122  309.6529  -9.760     1197.56 0.071
  825.6012  431.4679  -9.049  823.9589  309.5136  -9.044      544.49 0.104
   30.7243  383.7469  -6.551   23.4350  310.5174  -6.553       55.24 0.319
  860.8224  434.8122  -7.218  859.3386  310.6989  -7.213       99.79 0.264
  144.6749  392.5212 -13.361  138.3996  312.3051 -13.363    29227.90 0.021
  189.9822  396.0558  -8.592  184.0902  313.0600  -8.593      413.98 0.085
  525.9725  420.5149  -8.604  522.5634  316.8786  -8.602      402.15 0.085
   20.0749  390.3083  -7.423   12.6424  317.7260  -7.425      125.94 0.215
  619.1046  427.2465  -8.876  616.2806  317.8981  -8.874      530.91 0.065
  345.8546  411.8037  -6.978  341.1786  319.2219  -6.978       85.01 0.225
  739.4518  436.0674  -6.493  737.3427  319.3633  -6.489       63.49 0.463
  415.6127  416.4462  -8.069  411.4483  319.5782  -8.068      198.99 0.119
  756.2139  438.0084  -6.649  754.1884  320.2755  -6.645       69.89 0.326
  887.8390  445.8017 -10.637  886.4468  320.0065 -10.631     2467.26 0.042
  921.3692  447.9389  -9.308  920.1262  320.0867  -9.303      803.74 0.051
  469.1115  421.3928  -6.245  465.3082  321.2384  -6.243       49.62 0.398
   34.7566  396.1273 -10.162   27.4292  322.6492 -10.164     1541.84 0.047
  435.1536  421.5271 -11.009  431.1071  323.4535 -11.008     3404.75 0.023
  448.9322  422.1380  -9.485  444.9820  323.2191  -9.483      899.11 0.070
  719.5641  438.2689 -10.061  717.3357  322.7752 -10.058     1510.17 0.055
  226.0105  409.1149  -7.913  220.3594  323.8948  -7.914      236.78 0.169
  748.5555  441.0429  -9.354  746.4765  323.7709  -9.350      728.30 0.050
  519.6757  429.4757 -10.457  516.1833  326.2100 -10.455     2346.38 0.049
  643.9698  437.0097  -6.414  641.2609  326.1193  -6.411       66.02 0.364
   17.5772  399.6072  -8.507   10.0637  327.1755  -8.510      384.06 0.072
  538.6333  433.1561  -7.683  535.2525  328.7227  -7.681      159.57 0.151
  859.5772  452.6983  -6.539  858.0253  328.6129  -6.534       54.90 0.385
  802.7781  451.0098  -8.385  800.9489  330.3999  -8.381      313.17 0.081
  281.9208  420.1554  -8.699  276.6830  331.4893  -8.699      398.96 0.087
  685.7730  444.0436  -9.998  683.2905  330.5794  -9.995     1355.80 0.041
  958.7063  461.2395  -7.230  957.5864  331.0653  -7.224      111.56 0.233
  112.5849  411.3446  -7.122  105.9055  333.0831  -7.124      108.84 0.262
  199.5230  417.1840  -7.717  193.5961  333.5845  -7.719      162.17 0.101
  335.0603  426.0402 -11.333  330.2243  334.1034 -11.333     5223.81 0.032
  532.7726  438.4720  -6.480  529.3277  334.3888  -6.478       49.46 0.339
  657.1447  447.0284  -6.692  654.4757  335.3104  -6.689       70.46 0.274
  720.1943  451.2819  -8.677  717.9164  335.7211  -8.674      446.35 0.064
  523.4085  440.9070  -7.874  519.8893  337.3939  -7.872      214.56 0.089
  971.7737  467.6307  -9.045  970.6898  336.6385  -9.039      540.15 0.100
   69.4127  414.0814  -6.505   62.3098  338.4682  -6.507       47.38 0.480
  696.2719  453.3718  -8.140  693.8144  339.2438  -8.136      263.87 0.104
  917.3031  466.8568  -6.697  915.9783  339.2009  -6.691       75.03 0.302
 1017.5168  472.6756  -7.568 1016.6089  338.8697  -7.561      159.81 0.170
  119.0044  418.8946  -7.330  112.3401  340.2347  -7.332      139.07 0.274
  641.6926  453.8789  -7.696  638.8987  343.0934  -7.694      198.58 0.154
  113.8535  422.5129  -8.735  107.1200  344.1672  -8.737      480.17 0.101
  455.3349  443.0413  -6.077  451.3288  343.6989  -6.075       45.61 0.458
  486.8481  445.6859  -8.332  483.0541  344.4069  -8.331      309.24 0.074
  762.4514  462.8049  -8.035  760.3630  344.6336  -8.031      200.48 0.142
  998.3526  478.5732  -7.207  997.3472  345.9228  -7.201      102.87 0.242
  179.3592  429.7590  -7.296  173.1826  347.3874  -7.298      114.83 0.158
  438.6511  445.0440  -7.650  434.5138  346.7220  -7.649      137.06 0.139
   94.6519  425.0489  -6.673   87.7231  347.8809  -6.675       64.47 0.357
  357.2660  441.0620  -7.737  352.5277  347.7436  -7.737      173.13 0.137
  449.5188  446.6744  -8.037  445.4529  347.6835  -8.036      209.54 0.139
  669.8347  460.7512  -8.291  667.1872  348.2271  -8.288      303.87 0.160
   23.5695  422.0079  -7.136   15.9798  349.2036  -7.138      110.75 0.228
  101.0360  426.7509  -7.295   94.1573  349.1900  -7.297      122.65 0.202
  368.2886  444.0685 -11.247  363.6214  350.0692 -11.247     4594.46 0.031
  898.8155  476.6625  -6.730  897.3710  350.1126  -6.725       80.73 0.435
  677.3982  464.4003  -9.587  674.7820  351.4050  -9.584      871.81 0.093
  707.4761  466.1403  -8.374  705.0643  351.3269  -8.371      310.61 0.112
  816.2994  472.3412  -9.216  814.4613  350.8530  -9.212      631.22 0.081
   76.1076  427.8707  -9.913   68.9854  351.8404  -9.915     1411.73 0.057
  502.8303  454.2949  -9.440  499.1079  352.0230  -9.438      963.26 0.051
  351.6589  445.8010  -7.210  346.8516  352.8217  -7.210      137.76 0.257
  668.9581  467.8923 -11.330  666.2758  355.4073 -11.327     4333.88 0.030
  803.2946  475.7461  -7.107  801.3762  355.0459  -7.103       96.25 0.254
  431.8584  453.5747  -6.314  427.6288  355.6581  -6.313       51.15 0.463
  510.6690  458.2641  -9.401  506.9828  355.5055  -9.399      797.45 0.045
  531.2219  459.7381 -10.747  527.6705  355.7165 -10.745     2769.94 0.036
  148.9708  437.1295  -8.397  142.4767  356.6192  -8.399      290.51 0.212
 1001.6469  489.9461  -6.632 1000.6198  357.0616  -6.626       67.61 0.238
   42.3806  431.4464  -7.672   34.9101  357.4871  -7.675      154.41 0.149
  685.0517  472.0373  -9.659  682.4510  358.5569  -9.656      894.46 0.052
   35.5208  433.7583  -7.623   27.9687  360.2200  -7.625      175.10 0.175
   59.1175  435.1938  -9.507   51.7872  360.2048  -9.510      924.29 0.062
  126.3926  438.4367  -8.085  119.6823  359.3127  -8.087      187.28 0.260
  136.2728  440.0998  -7.610  129.6446  360.3680  -7.612      157.87 0.182
  409.1604  456.5242  -6.666  404.7453  359.9979  -6.665       79.86 0.308
  982.9157  491.3852 -10.505  981.8034  359.6442 -10.500     2217.49 0.034
  269.2103  448.9175  -6.859  263.7103  361.0056  -6.860       98.19 0.346
  349.6112  454.2892  -8.847  344.7435  361.4266  -8.847      461.28 0.078
  700.6936  475.0729  -7.703  698.1805  360.6323  -7.700      160.48 0.205
  758.4823  479.3447  -9.417  756.3076  361.3803  -9.413      784.85 0.047
 1012.0153  494.8319  -6.475 1011.0167  361.2984  -6.469       79.78 0.469
  904.2821  489.2547  -8.028  902.8212  362.3373  -8.023      208.33 0.156
  148.9150  442.9792 -10.015  142.3866  362.4692 -10.017     1270.44 0.051
  890.3258  489.4980 -12.224  888.7972  363.4354 -12.219    10682.06 0.030
  205.7966  448.7753  -7.623  199.7484  364.7665  -7.624      164.41 0.210
  238.9526  450.6620  -8.604  233.1840  364.6108  -8.605      396.43 0.091
  294.6005  454.4574  -6.285  289.2840  364.9784  -6.286       49.15 0.387
  340.9977  457.1275  -8.849  336.0462  364.7916  -8.849      555.80 0.072
  127.0368  445.0669  -7.749  120.2938  365.9002  -7.751      162.68 0.157
  825.4490  487.6186  -9.095  823.6027  365.5346  -9.091      528.06 0.064
  484.4770  467.9445  -7.254  480.5610  366.7795  -7.252      120.62 0.222
  523.8651  470.6019 -10.668  520.2139  367.0157 -10.666     2819.98 0.034
  678.2031  479.8765  -7.580  675.5286  366.8003  -7.577      156.32 0.200
  929.9406  495.8481  -8.705  928.5778  367.3413  -8.700      388.52 0.132
  727.0698  483.7688  -7.114  724.6996  367.7199  -7.111       96.82 0.265
  924.5420  496.2437  -9.819  923.1530  368.0668  -9.813     1287.08 0.050
  407.3786  466.4743  -7.913  402.8997  370.0457  -7.913      226.81 0.130
  604.3430  478.3601 -13.766  601.2048  369.8203 -13.764    48634.92 0.030
  249.0336  458.0896  -9.660  243.3113  371.4125  -9.661      876.11 0.043
  834.8400  494.6333  -6.601  833.0170  371.9578  -6.597       70.04 0.401
  465.6669  473.3546  -8.373  461.5892  373.3372  -8.372      300.64 0.108
  911.0550  500.1118  -9.647  909.5897  372.7519  -9.642      946.29 0.066
   84.5134  451.7845  -9.812   77.3280  375.2295  -9.815     1147.02 0.041
  781.9570  494.2718  -9.225  779.8543  374.8375  -9.221      774.24 0.088
  886.5894  501.7617  -6.793  885.0010  375.8979  -6.789       86.24 0.281
   20.2710  450.4920  -8.929   12.4762  377.8890  -8.931      473.08 0.115
  917.9257  505.3889  -6.723  916.4752  377.5945  -6.718       74.18 0.412
  963.2953  507.9934  -6.649  962.0437  377.4105  -6.643       63.74 0.438
  476.3089  480.2787  -7.904  472.2755  379.5991  -7.903      198.45 0.123
  624.5008  491.7131  -9.469  621.4375  381.9124  -9.467      829.86 0.054
  370.0579  477.5104  -9.491  365.2322  383.3662  -9.491      842.04 0.051
  849.2187  506.2904  -6.613  847.4280  382.7071  -6.608       61.29 0.318
  856.7689  508.2515  -9.473  855.0098  384.2009  -9.468      936.55 0.047
  272.6479  473.6649  -8.210  267.0431  385.5222  -8.211      238.83 0.122
  310.2929  476.2695  -6.580  304.9904  385.8059  -6.580       55.33 0.401
  558.1202  491.6130  -8.038  554.6124  385.8925  -8.036      221.42 0.150
  954.0050  517.0036 -10.093  952.6825  386.9674 -10.088     1640.91 0.055
  195.2287  471.2907  -6.795  188.9602  387.9196  -6.796       67.77 0.377
  719.8192  504.0648 -10.330  717.3244  388.4216 -10.327     1643.18 0.049
   14.1683  462.1354  -8.636    6.2418  389.9091  -8.639      475.75 0.107
  305.5124  484.2184  -8.063  300.1278  394.0431  -8.063      284.69 0.183
  689.9141  507.3566  -7.426  687.1998  393.5078  -7.424      131.40 0.131
  794.8994  514.1340  -6.481  792.7926  393.8649  -6.477       57.28 0.361
  875.9696  519.4827  -7.216  874.2684  394.2287  -7.211      116.78 0.299
  505.7843  497.6074  -6.224  501.8818  395.0957  -6.223       54.63 0.428
   79.2784  472.2830  -8.786   71.9194  396.0457  -8.789      467.16 0.082
  882.6134  521.8900  -9.355  880.9370  396.2227  -9.350      830.83 0.048
  632.2842  507.5822  -7.443  629.2043  397.2765  -7.441      143.16 0.161
  970.6474  528.2093 -10.528  969.3630  397.1240 -10.523     2086.04 0.191
  459.0439  497.4017  -6.986  454.8013  397.7624  -6.986      115.81 0.352
  719.3711  513.5632  -7.805  716.8350  397.9304  -7.802      201.74 0.124
  441.8048  498.1162  -6.876  437.4296  399.5358  -6.875       59.20 0.355
   89.5714  476.3831 -10.512   82.2875  399.5117 -10.515     2086.99 0.036
  201.1732  484.1362  -9.200  194.8861  400.3931  -9.202      652.19 0.074
  347.9568  492.5761 -13.837  342.8763  399.7793 -13.837    52183.37 0.019
  697.8454  514.0228  -6.876  695.1528  399.6741  -6.874       84.11 0.313
  809.8051  521.2665 -11.193  807.7530  400.0681 -11.189     4605.72 0.030
   27.9249  473.9218  -6.371   20.0648  400.8495  -6.374       62.44 0.421
  188.8576  483.6781  -9.227  182.4618  400.6935  -9.228      629.67 0.050
  236.0020  486.5489  -8.566  230.0103  400.6569  -8.568      410.20 0.143
   17.8661  474.9223  -8.488    9.8981  402.4699  -8.491      349.47 0.090
  249.3260  488.8055 -10.096  243.4381  402.0908 -10.098     1453.98 0.049
  411.1473  498.4918 -10.621  406.5363  401.7968 -10.620     2303.23 0.032
  554.6536  507.7423  -6.164  551.0498  402.2131  -6.163       45.04 0.443
  742.0069  518.9008  -9.499  739.5830  401.8686  -9.496      842.79 0.068
  308.2926  493.2451 -10.270  302.8833  402.8920 -10.270     2086.06 0.026
  567.6073  509.4809  -6.836  564.0856  403.1522  -6.834       89.46 0.339
  117.5687  483.2798  -8.773  110.5123  404.6840  -8.776      410.38 0.106
  333.9896  498.1925  -7.286  328.7666  406.2520  -7.287      131.91 0.224
  729.8128  523.1759  -6.935  727.3011  406.8848  -6.932       77.66 0.299
  144.1669  487.9904  -6.608  137.3340  407.7560  -6.610       82.11 0.360
   30.9323  482.5347  -6.617   23.0472  409.2780  -6.620       68.54 0.281
  985.0482  540.5260 -10.743  983.7894  408.5261 -10.737     2568.98 0.033
  126.0393  488.7987  -7.682  119.0308  409.6807  -7.684      195.22 0.135
  269.8433  498.1907  -6.720  264.0817  410.2055  -6.722       77.52 0.287
  419.7928  507.5100  -7.598  415.2046  410.2738  -7.597      151.19 0.209
  680.3613  523.0759  -7.828  677.5228  409.7885  -7.825      185.58 0.133
  708.6225  525.1236  -6.979  705.9772  410.1306  -6.976       84.14 0.394
  855.2620  534.2172  -7.041  853.4029  410.2022  -7.037       79.83 0.307
  965.9566  540.5400  -8.080  964.6122  409.7125  -8.074      253.50 0.127
  764.2886  530.1098  -9.598  761.9502  411.6889  -9.595      984.01 0.069
  106.6290  491.2499  -7.840   99.4210  413.3276  -7.843      162.72 0.181
  411.3010  509.4106 -10.404  406.6380  412.6959 -10.404     1963.71 0.027
  868.5458  537.5059  -7.112  866.7430  412.6686  -7.108      105.63 0.179
  728.4493  531.2405  -8.426  725.8986  415.0190  -8.423      358.01 0.087
  112.7529  494.5285 -10.291  105.5842  416.2287 -10.294     1790.95 0.068
  143.6351  496.4190  -8.882  136.7483  416.2161  -8.884      513.80 0.121
  440.9994  514.3879  -8.409  436.5401  415.8405  -8.409      341.59 0.120
  602.1010  524.7386  -6.781  598.7467  416.2664  -6.779       73.54 0.228
  906.2513  543.4218  -7.719  904.6163  416.2551  -7.714      151.83 0.204
  515.8020  520.5878 -10.458  511.8648  417.4337 -10.457     2102.05 0.030
  849.5559  541.1296  -9.365  847.6420  417.4508  -9.361      689.24 0.046
  489.6024  519.2536 -10.754  485.4820  417.7122 -10.753     2687.79 0.042
  764.3991  537.5246  -7.184  762.0332  419.0834  -7.181      108.88 0.218
  658.5938  532.9526  -7.223  655.5758  420.9906  -7.221      103.72 0.285
  677.2445  534.1131  -8.634  674.3403  421.0011  -8.632      422.71 0.082
  864.6576  545.3080  -9.218  862.8067  420.6934  -9.214      697.02 0.061
  915.2048  550.0226  -6.656  913.5909  422.2913  -6.651       55.52 0.359
 1002.6828  555.4522  -6.325 1001.4575  422.3320  -6.319       53.41 0.448
  311.7252  513.5566  -8.777  306.2374  422.9789  -8.778      482.91 0.083
  648.1415  534.4196  -9.414  645.0497  423.0992  -9.412      946.16 0.068
  808.3344  543.5445  -6.956  806.1915  422.3930  -6.952       73.35 0.350
   20.4840  496.1488  -7.656   12.4076  423.5391  -7.660      125.43 0.182
  406.2541  520.8585  -7.313  401.4958  424.4450  -7.313       92.98 0.271
  630.4532  534.0099 -10.622  627.2476  423.7794 -10.620     2621.66 0.035
  947.2113  553.4121 -10.383  945.7393  423.7061 -10.378     1938.67 0.050
  319.5218  516.3585  -9.417  314.0844  425.2982  -9.417      872.15 0.048
  259.9096  514.8025 -10.579  253.9719  427.4225 -10.581     2290.57 0.056
 1015.3011  560.8698  -6.407 1014.1154  426.9606  -6.402       60.28 0.420
  276.4082  516.8003 -10.251  270.6026  428.4009 -10.252     1584.11 0.044
  537.0696  531.9038  -6.663  533.2318  427.4291  -6.662       65.57 0.374
  684.6755  541.2518  -7.516  681.7883  427.6717  -7.513      161.00 0.141
  110.1705  506.9613  -7.609  102.9036  428.8212  -7.612      173.71 0.253
  660.7234  541.0412  -7.138  657.6848  428.9367  -7.136      100.39 0.252
  139.9268  510.0535  -7.445  132.9258  430.0782  -7.448      161.93 0.173
  711.0892  545.4624  -8.762  708.3796  430.2843  -8.759      411.30 0.061
  839.9167  553.0253  -7.538  837.9086  429.9153  -7.534      165.31 0.167
  179.3369  513.1767  -6.233  172.6861  430.7708  -6.235       49.99 0.400
  234.8326  516.8442  -7.483  228.6632  431.0119  -7.485      144.32 0.214
  845.5509  554.3480  -6.832  843.5677  430.8892  -6.828       79.94 0.279
  292.9118  521.7366  -8.374  287.2213  432.3160  -8.375      329.11 0.113
  579.9392  539.2561  -6.835  576.3695  432.1312  -6.833       78.36 0.296
  876.4031  558.6848  -6.235  874.5644  433.3212  -6.231       39.82 0.384
  279.2000  522.3100  -8.507  273.3888  433.7358  -8.509      323.00 0.154
  887.0817  559.9237  -6.558  885.2933  433.9008  -6.554       59.44 0.388
  523.8905  538.2491  -7.547  519.9296  434.5789  -7.546      141.32 0.200
  167.4300  518.0865  -6.944  160.6406  436.4144  -6.946       72.78 0.325
  630.2182  545.5788  -6.715  626.9611  435.3478  -6.713       60.72 0.401
  777.2151  554.8936  -6.905  774.8564  435.6342  -6.902       96.56 0.290
   93.0565  514.2760  -6.509   85.5803  437.1927  -6.512       55.98 0.344
  225.1199  522.5692  -9.873  218.8322  437.3352  -9.875     1263.76 0.042
  999.7582  569.8306  -8.140  998.4760  436.8561  -8.134      251.95 0.127
  121.3370  518.5642  -6.726  114.1091  439.7361  -6.729       62.36 0.356
  186.2433  522.7327  -8.962  179.6018  439.8994  -8.964      532.28 0.072
  940.6908  569.5814  -6.860  939.1350  440.2409  -6.855       66.33 0.360
  256.2657  527.8212  -8.640  250.2252  440.6615  -8.641      394.10 0.087
   61.6609  517.3897  -8.841   53.8568  442.2453  -8.844      502.80 0.101
  431.5784  540.3426  -7.113  426.9225  442.3524  -7.113      100.10 0.164
  508.3351  544.5373  -7.328  504.2331  441.8183  -7.327      141.54 0.235
  556.4597  548.8993  -8.243  552.6824  443.2112  -8.242      255.16 0.132
  646.8914  554.3933  -9.240  643.7064  443.1235  -9.238      714.19 0.070
  722.7166  559.1886  -8.936  720.0238  443.2740  -8.933      522.05 0.082
  144.9064  523.9411  -6.327  137.8717  443.6587  -6.330       46.74 0.448
  420.5698  541.4126 -10.120  415.8235  444.0997 -10.120     1750.61 0.037
  668.0962  556.6738  -7.191  665.0391  444.0941  -7.189      115.55 0.200
   38.6077  520.3476  -8.433   30.5545  446.6280  -8.437      306.91 0.097
  232.9316  532.1105  -6.550  226.6608  446.3914  -6.552       58.63 0.370
  398.7148  542.9133  -6.458  393.7885  446.9486  -6.458       50.48 0.451
  820.9293  568.4287  -6.202  818.7626  446.4576  -6.199       38.01 0.487
  242.9823  534.1433  -6.259  236.7899  447.8027  -6.261       55.12 0.384
  329.4000  540.2546  -8.947  323.9205  448.5718  -8.948      340.19 0.307
  158.5923  531.2310  -8.688  151.6446  450.1040  -8.690      428.39 0.092
  466.0363  549.9882 -10.048  461.5964  449.8687 -10.047     1506.40 0.036
  580.5388  557.2234  -6.951  576.8932  450.0416  -6.950       97.85 0.249
  762.0894  568.3706  -9.978  759.5932  450.0192  -9.975     1346.24 0.048
  562.6423  558.2126  -7.293  558.8668  452.1338  -7.292      148.28 0.180
  567.4463  558.4744  -7.084  563.7035  452.0990  -7.083      102.74 0.330
  289.4867  542.2831  -8.257  283.6571  453.0658  -8.258      232.01 0.402
  908.8421  580.8449  -7.998  907.0914  453.4412  -7.994      212.29 0.099
  964.4365  583.6632  -7.008  962.9484  452.8314  -7.003       97.35 0.217
  685.5332  567.7010  -8.353  682.5415  454.0321  -8.351      270.47 0.121
  883.7096  579.2746  -7.121  881.8354  453.4213  -7.117      101.07 0.216
  721.6521  571.8907 -10.406  718.9038  456.0225 -10.404     2275.98 0.032
  736.4935  572.4010  -6.481  733.8320  455.6185  -6.479       52.85 0.352
  987.2379  589.4453  -6.566  985.8383  457.1973  -6.561       58.61 0.427
  514.7295  562.6398  -8.174  510.5900  459.5109  -8.173      216.16 0.116
   81.0573  535.8628  -7.075   73.3343  459.5264  -7.078       81.35 0.318
  298.5882  549.3489  -6.295  292.7993  459.5665  -6.296       47.41 0.440
  397.6913  556.0315  -8.888  392.6922  460.1217  -8.888      539.32 0.090
  199.6510  546.8794  -7.260  192.9963  463.2164  -7.262      113.82 0.219
  244.4823  549.5242  -6.052  238.2187  463.0877  -6.054       38.75 0.451
  401.8908  559.5774  -8.992  396.9079  463.4061  -8.992      538.18 0.078
  788.1230  583.2487  -9.196  785.7194  463.2713  -9.193      649.00 0.083
  691.4720  578.2130  -6.394  688.4744  464.1645  -6.392       48.12 0.383
  417.7044  562.3074 -10.830  412.8342  465.1573 -10.830     3239.86 0.049
  433.1745  562.7883  -8.194  428.4229  464.6838  -8.194      239.60 0.114
  616.8253  575.2285  -6.461  613.3499  465.7892  -6.459       60.19 0.351
  237.7635  554.2570  -7.261  231.4137  468.2356  -7.263      107.40 0.214
  719.5749  583.5409  -9.404  716.7690  467.7840  -9.402      853.12 0.079
  607.8973  579.0322  -7.346  604.3444  470.1400  -7.345      126.11 0.188
  479.2012  571.8302  -8.741  474.7570  470.8831  -8.740      460.51 0.091
  553.2982  576.0631  -8.467  549.3755  470.5443  -8.466      296.36 0.116
  573.5560  578.2011  -9.173  569.7679  471.4297  -9.172      645.38 0.049
  898.3671  597.2397  -7.631  896.5060  470.4500  -7.627      127.83 0.272
  129.5469  551.2730  -7.468  122.2061  471.9436  -7.471      138.61 0.265
  296.4298  561.3561  -9.004  290.5584  471.7039  -9.005      511.49 0.072
  536.3729  576.7067  -7.610  532.3250  472.2324  -7.609      155.82 0.227
  682.8315  585.2271  -7.338  679.7496  471.7032  -7.336      112.14 0.169
  824.0492  594.6032  -7.929  821.8029  472.3957  -7.926      199.92 0.192
  180.0082  554.8473  -8.116  173.1261  472.3986  -8.119      200.87 0.302
  925.8179  601.6402  -6.838  924.0824  473.1506  -6.833       69.35 0.289
  372.1043  568.6224 -10.774  366.8344  474.2877 -10.775     3076.71 0.035
  718.5802  589.6631  -9.579  715.7445  473.9591  -9.577      843.27 0.353
  801.0829  594.4670  -9.617  798.7101  473.6741  -9.614      986.10 0.049
   69.7939  552.4397  -9.580   61.8591  476.8069  -9.584     1020.05 0.057
  110.3558  554.9987  -8.057  102.8069  476.8575  -8.060      243.69 0.129
   61.9781  552.7842  -6.704   53.9628  477.6353  -6.707       79.16 0.338
  325.2495  570.7100  -8.823  319.5762  479.2724  -8.824      423.70 0.109
  193.2151  563.6166  -9.517  186.4063  480.3520  -9.520      789.83 0.062
 1016.0602  614.1221  -8.284 1014.7172  480.0450  -8.279      317.03 0.112
   44.1213  554.4829  -7.686   35.9152  480.4401  -7.689      157.09 0.162
  278.1926  569.4884  -7.390  272.1188  480.9631  -7.392      160.62 0.177
  372.4382  575.5980  -9.290  367.1360  481.2398  -9.290      743.67 0.082
  103.0457  559.1313  -9.607   95.4006  481.4440  -9.610      887.67 0.067
  563.7194  588.6993 -10.964  559.8143  482.5262 -10.963     3310.33 0.036
  762.4055  601.2210  -7.499  759.7864  482.8007  -7.497      156.27 0.143
  155.7216  565.2752  -7.062  148.5504  484.3303  -7.065       77.89 0.202
  262.2011  572.6677  -6.701  255.9688  485.1321  -6.703       64.66 0.388
  317.1407  575.9445  -7.455  311.3705  485.0073  -7.456      125.30 0.159
  358.8071  578.8720 -11.181  353.3750  485.3558 -11.182     3850.44 0.029
  126.7315  564.8709  -7.641  119.2839  485.7200  -7.644      159.73 0.166
  331.3846  579.0158  -9.877  325.7203  487.1965  -9.878     1294.26 0.034
  388.5597  582.0682  -8.561  383.3577  486.7101  -8.562      326.95 0.109
  419.8067  583.9170  -8.571  414.8485  486.6250  -8.571      378.79 0.110
  788.1662  607.3049  -9.171  785.6725  487.2884  -9.168      669.52 0.064
  800.7629  608.1277  -8.296  798.3373  487.3337  -8.293      265.09 0.120
  945.7958  616.2942  -9.798  944.1122  486.5453  -9.794     1108.94 0.043
  557.0105  593.3798  -6.619  553.0362  487.6175  -6.618       76.61 0.383
  579.1371  595.5949  -7.368  575.3107  488.4638  -7.367      111.43 0.193
  854.4673  611.8568 -11.493  852.3214  487.7477 -11.490     5560.13 0.039
  412.0731  585.4507  -7.136  407.0453  488.6364  -7.137      103.26 0.192
  519.3549  592.4981 -11.571  515.1111  489.0614 -11.570     6682.61 0.032
  827.0158  611.5724  -6.815  824.7231  489.1554  -6.812       66.25 0.319
  612.5608  599.2264  -6.445  608.9517  490.0271  -6.444       55.45 0.389
  636.6885  600.8580 -10.214  633.2368  490.1666 -10.213     1759.06 0.046
  173.8604  573.1337 -11.124  166.8161  491.0681 -11.126     4193.35 0.044
  198.2476  575.5421  -6.812  191.4181  491.9676  -6.815       76.49 0.245
  950.0191  623.9672  -9.223  948.3317  493.9435  -9.218      726.88 0.070
   52.0366  569.8577  -6.977   43.8173  495.3346  -6.981       87.48 0.313
  210.7577  579.3849  -7.034  204.0224  495.0359  -7.037      110.93 0.266
  704.2278  610.0120  -8.993  701.2251  495.1671  -8.991      578.08 0.076
  785.6806  614.7989  -7.766  783.1446  494.9251  -7.764      184.06 0.177
  223.8696  581.3481  -7.888  217.2438  496.1869  -7.890      204.87 0.118
  481.1152  597.0100  -6.581  476.5669  495.9289  -6.581       70.05 0.431
  675.9790  608.9385 -10.571  672.7537  495.8119 -10.570     2446.40 0.038
  713.8369  611.9144  -9.785  710.8860  496.4745  -9.783     1099.78 0.068
  887.7007  622.4967  -9.621  885.6946  496.3209  -9.617      820.30 0.232
  333.1326  588.6385  -7.559  327.4333  496.7089  -7.561      155.65 0.196
  555.9698  602.8849  -8.728  551.9449  497.1799  -8.727      475.59 0.081
  899.8325  625.3690  -7.862  897.8813  498.4397  -7.858      177.30 0.259
  121.6914  577.5480  -7.843  114.1203  498.7142  -7.846      173.09 0.379
  660.9235  614.3759  -6.777  657.5762  502.1743  -6.775       66.79 0.337
   32.2874  576.8792  -8.838   23.8226  503.5839  -8.842      480.50 0.083
  227.9892  588.9566 -10.605  221.3588  503.5410 -10.608     2231.63 0.035
  338.0311  597.0659  -6.535  332.3301  504.8314  -6.537       65.49 0.270
  366.2822  599.4137  -7.210  360.8086  505.4291  -7.211      107.96 0.296
  699.1213  619.3889  -7.220  696.0025  504.8217  -7.218      131.99 0.207
  198.1422  589.3790  -6.442  191.2337  505.8137  -6.445       56.22 0.485
  417.4393  603.2936  -7.068  412.3681  506.1398  -7.069       92.32 0.278
  602.1361  614.2549  -7.201  598.3889  505.6874  -7.200      113.97 0.202
  976.5059  638.2387  -6.950  974.9043  506.5542  -6.946       78.80 0.477
  590.0359  616.1311  -6.577  586.1954  508.3104  -6.576       67.45 0.374
  844.4121  631.1115  -6.380  842.1422  507.5928  -6.377       58.82 0.383
  951.7727  637.4607  -6.581  950.0504  507.3044  -6.577       62.51 0.485
  104.7230  587.0716  -8.143   96.9288  509.2943  -8.146      256.89 0.270
  123.9785  588.4426  -6.277  116.3659  509.4724  -6.280       49.33 0.495
  296.5838  598.6601  -9.465  290.5151  508.9934  -9.467      819.27 0.041
  356.7376  602.2586  -8.396  351.1691  508.8646  -8.397      318.20 0.174
  429.5957  607.1682  -8.780  424.6025  509.2617  -8.780      439.39 0.086
   98.7799  587.4856  -8.464   90.9244  510.0769  -8.467      391.92 0.091
  375.7565  605.2789  -6.143  370.3327  510.7061  -6.144       35.58 0.434
  629.3621  621.6001  -9.126  625.7713  511.3433  -9.125      614.96 0.058
  742.1427  629.0813  -7.440  739.2974  511.8748  -7.438      141.49 0.209
  762.8632  630.4136  -9.341  760.1359  511.9267  -9.339      876.24 0.058
  945.5371  641.3472  -9.195  943.7705  511.5691  -9.191      631.78 0.059
  187.9202  595.5408 -10.381  180.8809  512.6104 -10.384     2054.05 0.031
  303.1864  602.7489  -7.649  297.1538  512.6729  -7.650      171.81 0.175
  310.3351  604.8193 -10.454  304.3540  514.3003 -10.455     2012.47 0.051
  523.1525  617.7205 -13.774  518.8203  514.0340 -13.774    50136.92 0.031
  169.3959  597.2321  -6.562  162.1712  515.4506  -6.565       58.33 0.348
  387.3875  611.2469  -7.294  382.0305  515.9525  -7.295      136.25 0.278
  894.4522  642.1491  -8.980  892.4139  515.5250  -8.977      475.70 0.090
  448.9008  616.1132  -7.022  444.0153  517.0116  -7.022       82.70 0.346
  622.8625  626.3299  -8.068  619.2070  516.4711  -8.067      208.93 0.172
  756.0897  635.4030  -8.186  753.3029  517.3282  -8.184      236.14 0.130
  843.4517  640.8691  -6.495  841.1414  517.3956  -6.492       57.49 0.309
   27.6922  590.4586  -9.776   19.0936  517.4525  -9.780     1044.72 0.073
   61.8208  593.1282  -6.447   53.5600  518.0151  -6.451       61.34 0.443
  253.5104  604.8175  -6.771  247.0250  517.8222  -6.773       75.42 0.384
  774.7468  637.4531  -6.837  772.0620  518.2243  -6.835       93.21 0.385
  989.0523  650.1640 -11.989  987.4739  517.6829 -11.984     7944.25 0.023
  565.0741  625.6928  -9.592  561.0131  519.4090  -9.592      962.47 0.052
  781.7788  638.8182  -6.736  779.1298  519.1537  -6.734       72.90 0.291
  153.7858  600.8827  -7.097  146.3904  520.0707  -7.100       90.12 0.252
  261.6732  607.3237  -8.365  255.2479  519.8226  -8.367      279.69 0.159
  461.5358  620.5712  -7.724  456.7267  520.6877  -7.724      170.09 0.123
  855.6905  645.2570  -7.454  853.4309  521.0222  -7.450      130.34 0.186
  278.6589  611.1784  -7.643  272.3650  522.6245  -7.645      160.30 0.171
   54.3486  600.0353  -7.623   45.9699  525.3909  -7.627      150.25 0.155
  380.6052  620.2434  -8.229  375.1463  525.3684  -8.230      261.84 0.121
  677.9406  637.8500  -8.558  674.6089  524.5747  -8.557      322.50 0.134
  798.6488  645.5021  -8.383  796.0719  524.7879  -8.381      301.46 0.139
  914.3009  654.5480  -6.972  912.3278  526.6782  -6.968       84.28 0.256
  237.0396  614.9522  -6.233  230.3486  528.9815  -6.235       45.13 0.415
   92.4561  607.1223 -12.783   84.4210  530.1185 -12.787    18001.13 0.021
  135.0379  609.5468  -9.782  127.4103  529.9024  -9.786     1101.11 0.094
  504.9200  632.6919  -9.961  500.3842  530.1228  -9.961     1325.53 0.111
  771.7012  648.8276 -10.592  768.9550  529.7735 -10.589     2625.10 0.037
  205.4000  616.1383  -6.874  198.4087  532.1320  -6.877       83.48 0.308
  365.4555  628.0749  -7.512  359.8292  534.1392  -7.514      150.12 0.194
  486.0012  635.5700  -8.214  481.3089  534.1690  -8.214      258.16 0.127
  692.5464  648.1853 -10.473  689.2689  533.9974 -10.472     1904.66 0.160
 1000.7941  667.5884  -8.544  999.2167  534.3506  -8.540      328.85 0.125
  402.2634  631.6008  -9.526  396.9276  535.3820  -9.527      919.48 0.051
  466.5025  635.1423  -8.344  461.6623  534.9469  -8.345      346.99 0.123
  949.4288  665.3167  -6.196  947.6042  535.2585  -6.192       52.71 0.480
  970.9132  665.8774  -8.581  969.1960  534.4901  -8.577      349.06 0.071
  376.0608  630.1750 -10.343  370.5135  535.5815 -10.345     1618.24 0.042
  602.5456  644.9994  -7.061  598.6689  536.3832  -7.060       82.29 0.269
  743.7797  653.2296 -10.175  740.8486  535.8955 -10.174     1806.58 0.033
  508.3965  640.1357  -7.392  503.8526  537.3482  -7.392      141.08 0.239
  479.3560  638.6513  -6.404  474.5984  537.6600  -6.404       47.47 0.403
  571.3376  644.4217  -7.405  567.2399  537.7377  -7.404      139.51 0.240
   68.2807  614.6120  -7.498   59.9565  539.1146  -7.502      152.29 0.168
  138.5056  619.2736  -9.117  130.8554  539.4200  -9.121      590.98 0.063
  182.8746  621.3069  -7.137  175.6411  538.7008  -7.140      100.39 0.260
  234.0637  625.0275  -6.591  227.2897  539.2453  -6.594       69.71 0.364
  423.4059  635.9193  -6.616  418.2222  538.3890  -6.617       59.19 0.488
  664.3642  651.2273  -6.820  660.8876  538.7808  -6.819       92.14 0.427
  369.7187  633.8144  -8.037  364.0993  539.6144  -8.038      212.65 0.137
  319.8788  632.2568 -10.188  313.8379  541.1494 -10.190     1827.84 0.041
  540.3172  645.8430  -7.276  535.9851  541.0786  -7.275      138.10 0.242
  970.5610  672.7293  -7.810  968.8201  541.3525  -7.806      163.97 0.174
   20.9458  618.0483  -6.304   12.1117  545.4864  -6.309       37.81 0.297
  436.9923  643.8233  -6.496  431.8783  545.4515  -6.497       58.27 0.482
  181.8560  630.1246  -8.323  174.5626  547.5867  -8.326      261.15 0.117
  710.1463  662.8534 -10.247  706.9672  547.5891 -10.245     1794.90 0.041
  135.4357  629.3280  -6.479  127.6970  549.6719  -6.482       58.59 0.388
  472.8178  650.5413  -7.129  467.9534  549.9511  -7.130      114.99 0.224
  731.5027  666.7250  -8.613  728.4422  550.1368  -8.611      355.43 0.090
  869.8937  675.2038  -6.586  867.6072  550.0517  -6.583       65.41 0.269
  600.6917  659.4892  -6.906  596.7399  550.9786  -6.906       96.49 0.283
  722.1914  666.8509  -8.298  719.0721  550.8383  -8.296      251.02 0.176
   23.1140  624.5964  -8.747   14.2634  551.9066  -8.751      436.74 0.115
  325.1384  643.2355  -8.759  319.0864  551.8041  -8.761      500.19 0.060
  554.5245  657.6269 -12.446  550.2455  551.9765 -12.446    14497.01 0.027
  297.0288  642.8178  -9.720  290.7306  553.1320  -9.722     1161.17 0.049
  770.1160  672.3989  -9.320  767.2697  553.4177  -9.318      679.33 0.064
  800.0715  674.0033 -10.493  797.3966  553.1684 -10.491     2181.68 0.033
  912.2113  681.0225 -10.760  910.1388  553.2434 -10.756     3009.98 0.027
  309.6902  643.9660  -8.322  303.4984  553.4941  -8.324      248.78 0.092
  419.3540  651.3102 -13.556  414.0610  554.0303 -13.557    41838.97 0.022
  574.6246  661.3104  -9.288  570.4770  554.4131  -9.288      609.78 0.078
  862.2628  679.1324  -6.967  859.9211  554.4471  -6.964       85.33 0.238
  897.6326  680.9942  -8.848  895.4808  554.1175  -8.845      455.24 0.085
  931.2450  683.1006  -8.477  929.2675  554.1405  -8.473      366.93 0.101
  990.8307  687.4240  -7.810  989.1433  554.7697  -7.806      198.79 0.138
   81.1336  632.5925  -8.399   72.8327  556.3123  -8.404      340.68 0.115
  260.6560  643.2963  -6.740  254.0266  555.8701  -6.743       76.18 0.372
  710.0347  671.2853  -9.613  706.8203  556.0208  -9.612     1092.48 0.048
  851.3411  679.6061  -7.302  848.9377  555.5953  -7.299      129.68 0.219
   74.9430  633.2489  -7.215   66.5751  557.3539  -7.219      100.84 0.252
   91.2893  633.8605  -9.919   83.0838  556.9503  -9.923     1353.42 0.082
  780.5457  676.5139  -8.934  777.7461  556.8836  -8.932      558.01 0.086
  939.6893  686.1556  -6.519  937.7462  556.6684  -6.515       60.75 0.483
  459.2102  657.8871  -9.457  454.2042  558.1380  -9.458      857.55 0.069
   22.6404  631.2633  -7.228   13.7450  558.6101  -7.233       97.18 0.210
  676.2957  672.7653  -7.116  672.8114  559.5644  -7.115      109.73 0.279
  181.0720  644.0516  -9.862  173.6918  561.5710  -9.865     1165.88 0.052
  287.7327  651.8982  -7.495  281.3029  562.7932  -7.497      123.62 0.319
  189.1682  646.4799  -8.612  181.8518  563.4980  -8.615      296.07 0.268
  730.7838  680.3223  -7.100  727.6642  563.7668  -7.099      125.34 0.347
   70.1029  640.0636  -7.550   61.6447  564.4759  -7.554      134.70 0.168
  235.7659  650.3071  -6.435  228.8684  564.4312  -6.438       53.79 0.394
  251.3595  653.7160  -7.315  244.5881  566.8726  -7.318      103.39 0.269
  632.0312  676.9628 -13.623  628.2264  566.5009 -13.622    36535.26 0.031
  649.5521  678.5867  -9.360  645.8621  567.0385  -9.359      820.71 0.090
  693.5596  681.2906  -7.344  690.1561  567.0147  -7.343      138.19 0.196
  717.8207  682.7454  -6.803  714.6091  566.9901  -6.801       84.17 0.390
  539.9420  672.3804  -6.933  535.4885  567.6269  -6.933       85.19 0.278
  755.8507  686.3919  -6.781  752.8632  568.2801  -6.780       73.70 0.348
  584.4165  676.6520  -7.684  580.2735  569.1405  -7.684      181.80 0.152
  616.3590  679.3071  -6.428  612.4340  569.8150  -6.427       59.93 0.473
  198.8902  654.1328  -7.245  191.6232  570.5520  -7.248      103.76 0.210
  733.2218  688.0598  -6.913  730.0865  571.3472  -6.911       88.66 0.302
  532.1420  677.0595  -7.138  527.6087  572.7877  -7.138       90.51 0.233
  837.6429  696.1719  -7.639  835.1039  572.9897  -7.636      160.77 0.186
  726.2325  691.4223  -7.652  723.0394  575.1398  -7.651      180.25 0.146
  897.2857  701.8199 -11.400  895.0618  574.9384 -11.397     5704.61 0.041
  918.6566  702.8909  -8.386  916.5462  574.6837  -8.382      280.12 0.152
  604.7569  685.0782  -8.504  600.7245  576.3024  -8.504      346.79 0.087
  958.6937  706.7045 -13.966  956.7830  576.0116 -13.962    58867.84 0.031
  682.4904  690.4668  -6.919  678.9761  576.8709  -6.918       91.83 0.289
  357.1971  671.3632  -6.861  351.2791  577.9478  -6.863       76.33 0.328
  102.9790  656.1063  -7.333   94.7599  578.4899  -7.337      120.54 0.226
  123.5920  658.0356 -13.791  115.5685  579.1391 -13.795    46068.03 0.026
  398.0406  674.5217  -7.937  392.4548  578.5681  -7.939      190.85 0.088
  858.7225  703.7406  -9.498  856.2759  579.2460  -9.495      871.71 0.054
   85.9740  656.7291  -7.811   77.5786  580.1711  -7.816      187.27 0.135
  349.3292  673.2878  -7.664  343.3332  580.3622  -7.666      171.56 0.200
  410.9995  676.9317 -10.125  405.5101  580.1730 -10.126     1500.61 0.049
  890.2369  706.4012  -7.417  887.9584  579.9512  -7.414      131.52 0.242
  161.1530  661.9859  -8.272  153.4774  580.7570  -8.276      273.45 0.083
  215.7304  665.1213  -9.402  208.5622  580.5005  -9.406      653.68 0.057
  325.3337  672.0740  -7.821  319.1336  580.6400  -7.823      183.54 0.125
  690.4307  695.5035  -9.931  686.9494  581.4126  -9.930     1307.49 0.061
  426.0320  680.7058 -13.611  420.6484  583.0136 -13.613    40536.86 0.028
  567.9333  690.2897  -8.209  563.6097  583.7946  -8.209      254.37 0.118
  981.8287  715.7822  -9.546  980.0075  583.6432  -9.542      927.28 0.089
  762.9075  703.0715  -7.872  759.8986  584.5092  -7.870      165.86 0.202
  786.9346  705.1125  -7.581  784.0649  585.0607  -7.579      145.04 0.239
  229.5956  670.9943  -8.739  222.5260  585.5150  -8.742      370.41 0.092
  403.9054  682.3864  -8.433  398.3295  586.0698  -8.434      332.48 0.102
  914.9342  713.7297  -7.030  912.7676  585.7400  -7.027      103.35 0.350
  747.7079  704.5649 -11.364  744.5983  586.9428 -11.362     5079.97 0.029
  846.3005  710.7321  -9.857  843.7592  586.9993  -9.854     1292.61 0.055
  138.3446  667.9663  -6.791  130.4099  588.1614  -6.795       72.06 0.369
  984.3333  720.1697  -9.059  982.5106  587.8693  -9.055      544.63 0.107
  307.3312  679.4550  -9.195  300.9323  589.1442  -9.198      691.67 0.101
  935.3029  717.7177 -10.597  933.2332  588.4602 -10.593     2192.66 0.035
  265.8626  677.8120 -11.034  259.0944  590.0804 -11.037     3125.39 0.348
  508.5447  693.3037  -6.614  503.7577  590.4914  -6.615       68.86 0.370
  334.8313  684.5373  -6.928  328.6504  592.5180  -6.930       85.95 0.480
  850.4188  716.4983  -8.886  847.8807  592.5048  -8.884      480.29 0.093
  925.2988  721.9448 -10.379  923.1613  593.3027 -10.376     1999.46 0.035
   18.3812  667.2067  -8.047    9.2251  594.8619  -8.052      245.77 0.128
  174.2873  677.5938  -7.231  166.6504  595.5613  -7.235      113.49 0.282
  254.8115  682.0122  -8.137  247.9180  594.9711  -8.140      292.16 0.123
  355.6812  688.2872  -6.329  349.6634  594.9723  -6.331       50.20 0.426
   95.1024  672.8006  -8.097   86.7046  595.6917  -8.101      264.84 0.121
  913.6574  723.6256  -9.933  911.4508  595.7036  -9.930     1254.15 0.038
 1000.3042  729.6697  -9.790  998.5300  596.3659  -9.786      966.21 0.054
  363.0329  691.0985  -6.425  357.0646  597.3272  -6.427       56.88 0.445
  622.7313  708.3130  -6.752  618.7290  598.4134  -6.751       77.68 0.257
   85.3183  675.8377  -9.586   76.8024  599.3413  -9.591      967.16 0.053
  394.5651  694.6419  -9.943  388.8490  598.9098  -9.944     1465.39 0.044
  526.9530  703.0162  -8.462  522.2633  599.0598  -8.462      324.70 0.113
  699.2734  713.1054  -8.774  695.7808  598.4570  -8.773      417.30 0.089
  758.9717  717.1855  -7.548  755.8834  598.8567  -7.547      164.48 0.323
  765.7165  718.5434  -7.801  762.6651  599.7956  -7.800      170.32 0.195
  185.0937  683.5180  -7.341  177.5279  600.8183  -7.345      120.70 0.198
  428.8973  698.8025  -6.589  423.4481  600.9359  -6.590       68.86 0.369
  845.8381  724.5774  -7.143  843.2452  600.8601  -7.141      118.24 0.188
  353.2489  694.9470  -6.667  347.1759  601.7863  -6.669       76.38 0.461
  468.6826  703.6017  -7.051  463.5336  603.2642  -7.052       77.97 0.298
  245.7330  690.0892  -7.747  238.7103  603.6192  -7.750      168.05 0.165
  755.2263  721.7203  -9.286  752.0967  603.6206  -9.284      750.34 0.063
  933.8504  733.6190  -9.481  931.7207  604.4329  -9.478     1215.77 0.477
  232.4090  690.2167  -6.695  225.2598  604.5765  -6.699       66.10 0.382
  393.6007  701.2296  -8.097  387.8433  605.5599  -8.099      240.01 0.149
  520.8570  710.7978 -10.315  516.0853  607.2191 -10.315     2004.28 0.045
  310.8213  698.5453  -7.812  304.3538  608.0282  -7.814      182.19 0.155
  535.0028  713.3558  -7.126  530.3282  608.8981  -7.127      103.61 0.281
  633.0657  719.6276 -10.680  629.0895  609.0832 -10.680     2990.97 0.047
  126.8492  688.6322 -10.395  118.6794  609.5639 -10.400     1812.85 0.044
  649.7393  721.6909 -11.042  645.8723  610.1113 -11.042     4053.24 0.044
  245.1441  697.5412  -7.167  238.0751  611.1138  -7.171      117.30 0.259
  370.8237  704.9808  -7.454  364.8521  610.7308  -7.457      151.91 0.174
  413.0493  707.7193 -10.837  407.4240  610.8413 -10.839     3039.62 0.036
  699.7131  725.1700  -6.476  696.1753  610.4888  -6.475       56.56 0.368
  837.2970  733.9697  -7.098  834.6212  610.7736  -7.096       92.86 0.314
  844.5111  735.2017  -7.857  841.8730  611.5574  -7.855      208.48 0.134
  463.2006  712.8626  -7.289  457.9633  612.8671  -7.290      125.25 0.250
  713.3431  728.2757 -10.088  709.9166  612.7694 -10.087     1626.44 0.046
  929.6434  741.7398  -9.373  927.4642  612.8060  -9.370      746.39 0.077
   21.3935  686.0337  -9.651   12.1568  613.5274  -9.656     1074.26 0.429
   36.2799  687.1929  -8.590   27.1847  613.7653  -8.595      400.27 0.082
  138.9726  693.5148  -9.228  130.8958  613.6968  -9.232      714.92 0.081
  663.1320  726.2400  -7.798  659.3398  613.8280  -7.797      196.89 0.150
   93.6084  691.9231  -6.395   85.0820  614.9293  -6.400       47.88 0.382
  608.6461  723.8205 -13.895  604.4765  614.7903 -13.896    47520.07 0.033
  361.8680  709.5931  -8.632  355.7952  615.9031  -8.634      434.31 0.106
  587.0564  723.5608  -8.470  582.7295  615.8706  -8.470      340.31 0.126
  727.2012  732.2448  -9.556  723.8497  615.8769  -9.555     1024.98 0.072
  672.9171  729.5701  -7.617  669.1790  616.5498  -7.616      169.30 0.177
  748.8595  734.8031 -14.367  745.6380  617.0904 -14.366   552263.00 0.000
  777.9714  736.5278  -8.336  774.9272  617.0084  -8.335      334.11 0.119
  841.1134  739.9512  -7.947  838.4386  616.5137  -7.945      187.72 0.102
  979.7763  749.2658  -8.106  977.8383  617.2109  -8.103      252.19 0.187
  508.0160  720.4522  -7.379  503.1001  617.6713  -7.380      137.33 0.260
  814.3518  739.4164  -9.170  811.5200  617.6388  -9.168      560.54 0.061
   90.5488  698.3233  -7.421   81.9529  621.5281  -7.425      124.38 0.204
  380.6903  716.1508 -10.010  374.7473  621.2917 -10.012     1389.30 0.046
   73.7593  697.8196  -6.414   64.9929  622.0702  -6.419       65.58 0.430
  317.8715  713.0992  -7.186  311.3914  622.1525  -7.188       96.44 0.251
  333.7517  713.9437  -8.285  327.4090  622.0079  -8.288      266.40 0.143
  508.3320  725.1633  -6.911  503.3970  622.3629  -6.912       67.48 0.395
  993.0872  755.4199  -8.616  991.1966  622.5311  -8.612      390.33 0.159
  186.9910  708.1231 -10.101  179.3038  625.3290 -10.105     1499.78 0.039
  265.6629  712.8201 -10.674  258.7038  625.1267 -10.677     2694.81 0.027
  344.6981  717.3816  -8.343  338.4347  624.7659  -8.346      276.71 0.106
  565.3272  731.5914  -6.953  560.8028  625.2492  -6.954       84.46 0.305
  571.4422  731.2119  -6.511  566.9655  624.4900  -6.511       59.58 0.438
  285.3119  716.8130  -8.980  278.5143  627.8982  -8.983      523.50 0.072
  610.3168  736.8385 -11.318  606.1038  627.7023 -11.318     4919.64 0.044
  650.7015  739.3414  -9.490  646.7681  627.6973  -9.490      912.35 0.064
  173.9580  712.1457  -9.477  166.1206  630.1681  -9.481      930.98 0.066
  774.8084  749.7294  -8.629  771.6942  630.3985  -8.628      336.77 0.120
  788.7955  750.0781  -6.620  785.7676  629.8789  -6.619       68.12 0.378
  475.2810  731.4921  -7.813  470.0527  630.7497  -7.814      195.50 0.133
  747.0360  748.3641  -9.769  743.7497  630.7577  -9.768     1163.08 0.093
  215.6435  716.4163  -9.519  208.1880  631.8445  -9.523      881.34 0.128
  485.4833  733.0225  -8.044  480.3300  631.6455  -8.045      220.50 0.128
   61.4201  707.7970  -7.898   52.4650  632.8308  -7.903      178.13 0.157
  245.6940  719.6890  -7.495  238.5088  633.2465  -7.498      122.05 0.209
  250.8315  719.9985  -7.479  243.6934  633.2359  -7.483      144.83 0.182
  281.2694  721.6204  -6.490  274.4083  632.9615  -6.494       70.19 0.349
  970.9855  764.0688 -12.851  968.9546  632.5426 -12.847    19048.50 0.023
   47.3079  708.3449  -7.834   38.2009  634.2599  -7.839      176.29 0.187
  148.4182  713.9326  -7.025  140.3176  633.5492  -7.029       82.32 0.348
  498.4338  737.4992  -9.470  493.3629  635.3177  -9.471      770.01 0.075
  265.3369  725.2394  -9.525  258.3071  637.5771  -9.528     1146.60 0.284
  839.9958  760.1521  -6.624  837.2424  636.7685  -6.622       62.85 0.442
   31.9694  711.5670  -8.991   22.6913  638.4387  -8.996      481.06 0.049
  328.2968  729.2602  -7.915  321.8251  637.6753  -7.917      215.01 0.123
  990.9809  770.6924 -14.222  989.0320  637.9158 -14.219   482130.59 0.000
  787.4945  759.0089  -6.558  784.4252  638.8854  -6.557       72.59 0.483
  861.3754  763.3203  -6.997  858.7365  638.6072  -6.995       94.92 0.233
  137.7355  719.5997  -7.371  129.4950  639.8895  -7.375      122.12 0.184
  321.7323  731.4736  -7.232  315.1898  640.2998  -7.235       97.32 0.241
  806.1752  761.3260  -6.716  803.2131  640.0412  -6.714       68.68 0.438
  179.3895  723.4803  -8.586  171.5410  641.1767  -8.590      339.25 0.109
  430.3574  738.7451  -6.413  424.7245  640.8030  -6.415       61.68 0.461
  481.3424  742.1365  -7.080  476.1125  641.0209  -7.081      104.02 0.258
  157.6409  722.6715  -8.898  149.5819  641.7235  -8.903      442.91 0.084
  695.7606  759.0619  -6.582  692.0590  644.6146  -6.582       45.65 0.481
  930.5966  772.5895  -6.769  928.3207  643.5647  -6.767       74.08 0.335
   76.0296  720.5481  -7.961   67.1509  644.6891  -7.966      225.62 0.135
  205.1295  729.0003  -9.107  197.5014  645.0974  -9.111      530.06 0.072
  407.4015  742.9445 -10.048  401.5536  646.4358 -10.051     1222.66 0.066
  438.6543  744.2451  -7.957  433.0640  645.7892  -7.959      218.81 0.107
  279.2926  735.0953  -6.484  272.3400  646.5717  -6.487       56.21 0.415
  567.3659  754.7191  -6.833  562.7529  648.2536  -6.833       72.06 0.358
  617.5320  759.6282  -8.331  613.2726  650.0436  -8.331      303.90 0.133
  176.4114  733.3979  -7.638  168.4772  651.2918  -7.643      148.41 0.242
  710.2556  766.1377  -8.516  706.6569  650.8101  -8.516      319.70 0.132
  814.4845  772.7072  -7.036  811.5317  650.8997  -7.035       98.09 0.311
  542.6280  756.8191  -8.107  537.8148  651.8929  -8.107      246.67 0.109
  916.9299  780.0850  -7.638  914.5529  651.9033  -7.635      147.89 0.164
  186.9876  735.9003  -7.001  179.1434  653.1372  -7.006      117.49 0.357
  880.3241  779.6202  -8.419  877.7388  653.7167  -8.416      327.23 0.128
  468.1014  755.3343 -11.467  462.7010  655.0498 -11.469     5785.66 0.024
  761.3440  773.9818  -8.716  758.0520  655.4762  -8.715      400.01 0.100
  116.4532  736.7232  -9.150  107.8968  658.3643  -9.155      655.66 0.076
  602.5856  768.6445  -8.284  598.1763  659.9907  -8.284      290.94 0.122
  394.1686  756.9921 -10.172  388.1367  661.3185 -10.175     1643.59 0.046
  279.7761  750.2514  -6.830  272.7459  661.7123  -6.833       74.64 0.309
  662.6829  774.2929  -8.459  658.6871  661.9001  -8.459      339.59 0.098
  731.0713  778.8831  -7.027  727.5620  662.2584  -7.026       95.06 0.358
   42.4357  736.2275  -7.549   33.1078  662.4909  -7.555      129.18 0.222
  429.5647  761.2110  -9.698  423.8157  663.3318  -9.700     1087.61 0.051
  229.8948  749.5432  -7.556  222.3931  664.1175  -7.560      136.00 0.263
  959.2092  794.4879  -8.025  957.0178  663.6617  -8.022      220.23 0.149
  511.4043  767.7433  -8.126  506.2950  664.7665  -8.128      239.09 0.110
  633.3185  775.1944  -6.702  629.1074  664.6288  -6.702       72.42 0.317
  992.2382  797.5947  -9.191  990.2115  664.7098  -9.188      663.45 0.098
  148.0713  746.1657  -8.047  139.7813  665.8455  -8.051      261.69 0.156
  586.0631  773.9271 -10.396  581.5062  666.3028 -10.397     1805.90 0.042
  832.7561  788.3830  -6.870  829.8578  665.4313  -6.869       98.59 0.348
  421.8137  764.6402  -6.260  415.9824  667.2467  -6.262       55.09 0.492
  471.3070  767.4556  -6.751  465.8751  666.9781  -6.753       66.24 0.411
  657.3802  779.4803  -6.626  653.3248  667.4174  -6.626       63.85 0.402
  818.5274  790.7504  -7.051  815.5336  668.6823  -7.050       76.82 0.301
  882.6715  796.2655  -9.427  880.0424  670.2040  -9.425      724.69 0.167
  277.6230  759.4962  -8.572  270.5225  671.1013  -8.575      363.63 0.086
  716.2258  787.8890 -10.142  712.5816  672.1865 -10.142     1553.72 0.043
  332.4070  764.5308  -8.550  325.7869  672.7198  -8.553      393.06 0.130
  300.7305  763.6163  -6.636  293.8239  673.7827  -6.640       66.11 0.363
  527.9752  778.9041 -10.585  522.9453  674.8999 -10.586     2699.09 0.041
  552.8144  780.0624  -6.749  547.9743  674.5109  -6.750       82.50 0.421
  842.4399  798.1825  -6.855  839.5651  674.6234  -6.853       58.83 0.367
  473.5658  776.1992  -6.766  468.1107  675.5862  -6.768       84.48 0.364
  598.1797  784.2196  -8.132  593.6688  675.8435  -8.133      237.51 0.114
  695.9766  789.8902  -7.649  692.1504  675.4245  -7.649      151.80 0.224
  738.6737  793.1425  -6.253  735.1595  676.0422  -6.252       55.61 0.487
  163.2966  758.3373  -7.000  155.0898  677.0828  -7.004      100.80 0.240
  572.5710  783.7323  -9.609  567.8673  676.9514  -9.610     1100.89 0.047
  873.9713  802.6621  -7.030  871.2686  677.1385  -7.028      103.33 0.383
  631.6508  788.7124  -8.768  627.3694  678.2524  -8.769      414.58 0.108
  233.3059  764.7636 -11.229  225.7530  679.1430 -11.233     4554.24 0.034
  361.2764  772.6144  -7.334  354.8751  679.0078  -7.337      113.53 0.279
  468.6311  780.7101  -6.388  463.1139  680.4079  -6.390       55.76 0.312
  795.0122  801.6749  -6.751  791.8314  681.0657  -6.750       63.88 0.284
  967.1886  812.5768  -7.312  964.9821  681.2372  -7.309      110.48 0.273
  494.5102  784.4025 -10.724  489.1871  682.4884 -10.726     2615.66 0.026
  864.8164  808.9500  -8.650  862.0374  683.9930  -8.649      429.47 0.071
 1001.9310  817.6054  -6.993  999.8921  684.0972  -6.990       70.43 0.317
  288.4899  774.2732 -11.125  281.4116  685.2160 -11.129     3755.11 0.032
  736.1266  801.7546  -9.870  732.5620  684.8117  -9.869     1001.53 0.257
   86.5633  762.3305  -6.619   77.5459  685.8795  -6.624       61.08 0.430
  277.3689  774.1431 -10.928  270.1865  685.7806 -10.931     3485.89 0.039
  369.7843  779.8386  -9.910  363.4220  685.7071  -9.913     1222.64 0.041
  637.3776  797.2376  -8.106  633.1017  686.4225  -8.107      249.82 0.111
  920.1203  814.0397  -9.564  917.6475  685.6324  -9.561      863.69 0.064
  181.9817  769.3743  -8.270  173.8985  686.9675  -8.274      304.74 0.103
  201.1963  771.0077 -10.690  193.2939  687.4019 -10.694     2365.94 0.028
  937.9126  816.4736  -9.743  935.5322  686.9554  -9.741     1025.53 0.042
 1008.3738  822.0395  -7.598 1006.3544  688.1258  -7.595      135.23 0.323
  269.4946  777.9273  -8.023  262.2170  690.0614  -8.027      234.75 0.151
  233.6332  777.2343  -7.283  226.0144  691.6091  -7.287      114.10 0.314
  988.0232  824.8323  -6.188  985.8892  692.1837  -6.186       45.95 0.386
  492.4288  795.1968  -8.834  487.0379  693.4199  -8.836      463.80 0.102
  430.8205  793.6612  -9.709  424.9241  695.7286  -9.711     1162.49 0.065
   71.7271  772.4652  -9.171   62.4927  696.9602  -9.176      599.40 0.074
  817.1594  818.8802  -8.775  814.0545  696.8866  -8.774      501.97 0.071
  970.3779  828.1339  -7.061  968.1388  696.5825  -7.058      109.31 0.224
  672.1693  810.3497  -7.371  668.0905  697.3681  -7.372      111.85 0.263
  714.2949  813.5499 -11.234  710.5363  697.9671 -11.234     4052.93 0.083
   43.2268  773.1776  -7.979   33.6832  699.4579  -7.985      194.49 0.187
  166.7524  780.0880  -6.344  158.4559  698.6494  -6.349       45.47 0.474
  982.9584  831.5485 -10.108  980.7764  699.2099 -10.105     1611.98 0.043
  315.5562  790.6426  -7.726  308.6428  699.9125  -7.730      156.05 0.189
   21.6838  775.3886  -6.802   11.9007  703.0107  -6.808       83.19 0.311
   99.3146  780.3635  -9.992   90.3240  703.1458  -9.997     1323.66 0.062
  202.8367  786.8514  -7.966  194.8616  703.1652  -7.970      227.86 0.134
  419.5221  800.1890  -7.441  413.4968  702.9680  -7.443      133.06 0.226
  497.5055  805.6116  -7.708  492.1069  703.5254  -7.710      167.31 0.155
  574.9792  811.3775  -6.670  570.1701  704.4590  -6.671       60.06 0.419
  934.2378  834.1404  -7.461  931.7783  704.8393  -7.459      129.16 0.236
  311.0415  795.9273  -9.933  304.0578  705.4859  -9.937     1242.74 0.049
  486.7554  806.9795  -7.091  481.2625  705.5656  -7.093      100.46 0.180
  711.2729  820.7948  -9.401  707.4649  705.4010  -9.401      619.81 0.139
  338.4377  798.9258 -12.073  331.6925  706.7742 -12.076     9654.00 0.028
  785.4697  826.5294  -9.519  782.1352  706.5092  -9.518      892.33 0.069
  285.6375  797.3105  -8.544  278.4079  708.4595  -8.548      310.30 0.092
  441.2291  806.0946  -7.443  435.3607  707.5231  -7.445      148.02 0.247
  480.2686  808.7471  -6.765  474.7139  707.7397  -6.767       75.82 0.395
  135.0235  788.9873  -6.620  126.3529  709.5488  -6.625       51.04 0.447
  568.0779  817.3464  -8.865  563.1882  710.8621  -8.866      522.08 0.064
  329.4167  803.5210  -7.390  322.5640  711.9391  -7.394      121.03 0.318
  556.5040  818.1677  -9.174  551.5196  712.4066  -9.175      523.33 0.080
  247.9461  799.7805  -7.645  240.3420  713.2907  -7.649      149.08 0.252
  842.2507  836.3241  -7.104  839.2383  712.7618  -7.103       87.30 0.319
  190.3581  796.5978  -8.267  182.2043  713.7072  -8.272      265.40 0.162
  214.4218  798.3567  -7.832  206.4972  713.9625  -7.837      189.03 0.120
  465.0744  814.0208  -8.514  459.3685  713.9669  -8.516      316.54 0.105
  759.3527  833.8085  -7.418  755.8195  715.4166  -7.418      143.57 0.212
  457.1035  815.7148  -6.550  451.3227  716.1605  -6.552       47.28 0.471
  538.4582  820.7119  -6.850  533.3186  716.0796  -6.851       71.34 0.288
  562.3025  821.8807  -8.168  557.3470  715.7598  -8.170      275.99 0.126
  597.3664  823.9475  -7.648  592.6742  715.6380  -7.649      151.67 0.227
  975.5468  847.6111  -8.791  973.2737  715.7228  -8.789      427.64 0.096
   38.9868  790.8061  -8.470   29.2902  717.3867  -8.477      302.68 0.092
  656.4540  828.3583  -6.499  652.1857  716.3613  -6.500       54.43 0.387
  943.3156  847.0154  -6.845  940.8652  717.1399  -6.843       76.85 0.264
  486.1273  821.1955  -8.638  480.5619  719.8328  -8.640      395.04 0.058
  689.6623  834.4879  -8.192  685.6086  720.4193  -8.193      223.29 0.172
  507.3613  823.7883  -7.813  501.9575  721.1010  -7.815      187.07 0.169
  444.0788  820.8278  -9.826  438.1633  722.0923  -9.828     1320.08 0.047
  191.5877  805.3426  -8.189  183.3968  722.3888  -8.194      215.48 0.120
  579.2463  829.9397  -7.404  574.3874  722.7655  -7.406      132.63 0.242
  701.5457  837.8890  -8.099  697.5627  723.0792  -8.100      223.37 0.118
  163.5538  805.3310 -10.741  155.0806  724.1333 -10.746     2891.79 0.109
  951.9814  854.6167  -6.897  949.5551  724.1957  -6.895       75.89 0.316
  141.8507  804.6012  -7.361  133.1598  724.7621  -7.366      136.25 0.170
  285.1020  814.1774  -8.639  277.7762  725.3825  -8.643      373.02 0.101
  201.8150  809.0512  -8.389  193.7052  725.4626  -8.394      277.88 0.092
  770.9079  845.3027 -10.656  767.4075  726.1900 -10.656     2307.73 0.117
  608.6042  836.1022  -7.482  603.9446  727.0972  -7.484      179.13 0.342
 1003.7321  860.1771  -8.752 1001.5712  726.5215  -8.750      362.15 0.095
  415.9347  824.4329  -6.803  409.7589  727.4608  -6.806       57.88 0.487
  657.8276  840.3406  -7.207  653.5188  728.2621  -7.208       98.08 0.237
  185.9928  811.3655  -7.223  177.7118  728.7720  -7.228       95.65 0.292
  237.7044  815.0107  -8.113  229.9165  729.1843  -8.117      233.58 0.154
   69.1352  804.9298 -10.342   59.6787  729.6491 -10.348     1879.61 0.047
  634.5578  840.4822 -10.231  630.0757  729.8578 -10.232     1966.68 0.041
  921.6682  859.4781  -6.549  919.0522  730.9487  -6.547       67.32 0.423
  460.4131  831.4075  -8.450  454.5847  731.6616  -8.453      307.89 0.111
  317.0823  823.6669  -6.530  310.0075  732.8830  -6.533       72.36 0.377
  611.7877  843.0190  -6.584  607.1222  733.8190  -6.585       65.57 0.383
  667.3809  846.2424  -6.993  663.1174  733.5692  -6.993       85.10 0.255
   53.3780  809.1909  -6.439   43.7260  734.9070  -6.445       48.81 0.439
   77.8860  811.4767 -10.897   68.4839  735.6604 -10.903     2835.58 0.033
  451.8805  834.8035  -8.860  445.9638  735.5945  -8.863      530.74 0.075
   92.2107  813.5878  -9.304   82.9486  736.8773  -9.309      835.45 0.056
  330.1347  830.5424  -9.093  323.1463  738.9504  -9.097      607.21 0.101
  504.8260  842.3733  -6.761  499.3145  739.8612  -6.763       71.94 0.355
  780.1947  859.5598  -6.275  776.7018  739.8682  -6.274       42.12 0.390
  816.3151  863.4213  -8.271  813.0422  741.4734  -8.270      246.92 0.125
  411.6653  838.4995  -8.175  405.3823  741.8108  -8.178      276.55 0.138
  835.5319  865.1851  -9.555  832.3742  742.0367  -9.554      952.12 0.065
  145.9651  822.7427 -10.623  137.2118  742.6785 -10.628     2391.61 0.163
  538.6500  847.2047  -8.695  533.3902  742.5816  -8.697      351.76 0.120
  107.5181  821.9122  -9.888   98.3687  744.2580  -9.893     1222.55 0.038
  215.1707  828.7108  -7.014  207.0840  744.3179  -7.018       86.48 0.252
  320.6626  835.1056  -6.062  313.5613  744.1133  -6.066       36.40 0.371
  528.8917  847.9484  -7.531  523.5499  743.9362  -7.533      139.71 0.180
  883.6352  870.5326  -8.956  880.7549  744.3777  -8.955      483.78 0.087
   36.6308  819.6395 -10.029   26.7330  746.4285 -10.035     1321.03 0.053
  519.7598  849.8910  -7.550  514.3353  746.4513  -7.552      131.42 0.225
  448.6159  846.6791 -10.457  442.6141  747.6868 -10.460     2058.98 0.047
  336.7063  841.1073  -7.576  329.7249  749.1179  -7.580      141.47 0.203
  360.2324  842.0467  -6.857  353.4651  748.5843  -6.861       78.53 0.305
  245.4946  836.3645  -7.656  237.6657  750.0841  -7.660      173.37 0.212
  280.5402  838.2926  -8.304  273.0411  749.8189  -8.309      302.49 0.126
  434.5555  849.4994  -8.753  428.4193  751.3901  -8.755      381.05 0.145
  600.2908  859.5633  -8.181  595.4649  751.0920  -8.182      191.18 0.352
  702.6620  866.0798  -7.958  698.5967  751.2234  -7.959      198.84 0.137
  873.1567  877.5082  -8.709  870.1876  752.0073  -8.708      465.78 0.086
  651.2853  865.4320  -7.750  646.8226  753.7733  -7.752      181.95 0.165
  687.8929  867.7470  -7.231  683.6901  753.7991  -7.232      117.48 0.278
  892.6803  880.4165 -10.896  889.8206  753.6934 -10.895     3318.86 0.034
   62.2860  829.3936 -10.445   52.6086  754.5932 -10.451     1869.44 0.152
  715.1467  870.8279  -9.542  711.1669  755.2028  -9.542      930.82 0.079
  725.1568  871.4743 -12.431  721.2444  755.2235 -12.432    13512.43 0.036
  565.4460  863.5044  -7.905  560.3285  757.2166  -7.906      189.47 0.199
  777.9084  876.2394  -7.714  774.3367  756.6914  -7.714      173.63 0.193
  406.2774  853.7799  -6.945  399.8705  757.4469  -6.948       87.16 0.450
  940.8972  887.3570  -7.567  938.2999  757.6151  -7.565      138.90 0.180
  417.0783  855.9583  -6.717  410.7574  758.9510  -6.721       76.85 0.431
  104.0282  836.9353  -9.616   94.7533  759.5306  -9.622      909.89 0.057
  248.8518  846.4300  -8.618  241.0009  759.9561  -8.622      411.89 0.108
  809.7805  881.7686 -10.554  806.3974  760.2286 -10.554     2191.64 0.032
   77.6531  837.1803  -7.561   68.0949  761.4319  -7.567      136.89 0.157
  463.6784  860.7555  -8.110  457.7373  760.8356  -8.112      254.56 0.107
  929.8461  890.3104  -8.059  927.1744  761.2592  -8.058      244.66 0.126
  385.8513  857.5005 -15.003  379.2410  762.4528 -15.006   993818.06 0.000
  846.3764  885.8286  -7.626  843.2118  762.0007  -7.625      164.01 0.216
  981.1758  894.3433  -6.356  978.7847  762.0788  -6.354       47.98 0.338
  138.7852  842.1357 -10.206  129.8449  762.5598 -10.212     1647.95 0.035
  692.2822  878.4335  -6.934  688.0677  764.2151  -6.934       96.68 0.362
  888.7937  891.7729  -8.030  885.8708  765.2912  -8.029      248.09 0.173
  190.1497  848.4839  -9.628  181.7001  765.6964  -9.634     1026.32 0.060
  263.1660  853.4435  -6.402  255.4173  766.0838  -6.407       53.34 0.443
  990.6278  899.0496 -10.076  988.2741  766.1923 -10.074     1368.36 0.098
  680.9398  880.9074  -9.643  676.6324  767.4001  -9.643      957.02 0.046
  731.2138  883.1268  -8.069  727.2973  766.5002  -8.069      196.15 0.149
  478.7831  868.9462 -10.048  472.9308  768.0894 -10.051     1648.32 0.064
  394.7686  864.8960 -12.208  388.2024  769.2990 -12.212    10978.77 0.038
   67.2624  844.6003 -11.304   57.5475  769.5205 -11.311     3844.84 0.027
   91.4505  846.4370  -7.960   81.9852  769.8421  -7.966      212.50 0.188
  205.6252  853.2075  -7.499  197.3052  769.4577  -7.504      109.45 0.297
  869.6605  895.5929  -8.407  866.6057  770.3087  -8.406      274.88 0.112
  159.1868  851.5927  -9.278  150.4032  770.7552  -9.284      591.39 0.361
  621.9782  881.2780  -7.211  617.2262  771.4630  -7.213       75.59 0.468
  965.6199  902.4253  -7.650  963.1152  771.1320  -7.649      161.94 0.227
  240.1266  858.4135  -8.173  232.1238  772.5081  -8.178      260.61 0.134
  419.8667  870.5250 -10.689  413.4989  773.3613 -10.693     2278.64 0.034
  999.7798  907.5686  -8.257  997.4496  774.1358  -8.255      261.19 0.093
   64.5167  850.5164  -9.153   54.7365  775.6223  -9.160      611.20 0.163
  676.2630  889.3081 -10.698  671.8866  776.0979 -10.699     2891.31 0.038
  175.7513  858.6963  -8.009  167.0970  776.8329  -8.014      279.89 0.227
  453.6553  876.3521  -7.480  447.5537  777.0781  -7.483      145.41 0.218
  538.2882  881.3997 -10.104  532.8707  776.8283 -10.106     1597.44 0.064
  696.0510  891.3967 -12.657  691.8112  776.9482 -12.658    17836.92 0.028
  132.1072  857.2660  -7.083  123.0089  778.1408  -7.089      108.04 0.373
  467.6958  877.8349  -9.355  461.7074  777.6827  -9.358      682.86 0.258
  939.9530  907.1088  -7.441  937.2846  777.4215  -7.439      144.14 0.396
   50.7363  853.0751  -9.179   40.7901  779.0528  -9.185      677.02 0.086
  376.2342  872.8884  -8.524  369.4585  778.4652  -8.528      312.18 0.203
  888.3265  905.7045  -7.900  885.3521  779.2508  -7.899      186.85 0.146
   36.8564  852.7382 -12.101   26.7595  779.5872 -12.107     9368.92 0.030
   69.3846  855.0314  -8.536   59.6301  779.8417  -8.543      367.35 0.133
  159.5543  860.5959  -7.572  150.7225  779.7537  -7.578      150.73 0.239
  249.3051  867.2459  -6.872  241.3451  780.7805  -6.877       76.00 0.412
  645.1895  892.0501  -6.596  640.5691  780.7881  -6.598       68.32 0.401
  795.3287  903.0649  -9.909  791.7710  782.4315  -9.909     1120.63 0.069
  850.0052  907.1633 -10.422  846.7864  783.1088 -10.421     2265.55 0.045
  324.2861  876.4825  -7.601  317.0051  785.3256  -7.606      133.05 0.260
  160.4160  869.6667  -7.633  151.5410  788.7894  -7.639      140.88 0.192
  197.9353  872.0308  -7.847  189.4310  788.8011  -7.852      182.92 0.125
  789.2241  908.9590 -10.234  785.6035  788.7092 -10.234     1649.93 0.050
  543.6036  894.4969  -7.807  538.1705  789.6051  -7.809      184.38 0.387
   76.7701  866.3580  -9.459   67.0279  790.7303  -9.465      934.00 0.057
  297.1119  880.7624  -7.208  289.5478  791.3191  -7.212      100.90 0.228
   16.7734  864.0560  -8.156    6.3902  792.1830  -8.162      225.17 0.162
  957.2018  923.1182  -8.241  954.5813  792.3482  -8.239      242.60 0.188
  846.5054  916.4208  -7.753  843.2311  792.5863  -7.752      190.06 0.176
  988.4092  925.4321  -7.054  985.9596  792.7065  -7.052       93.64 0.192
  125.1500  872.3272  -8.195  115.8905  793.6720  -8.201      247.30 0.134
  156.4151  876.7015  -7.370  147.4579  796.0909  -7.376      123.59 0.172
  404.6068  892.4858  -6.701  397.9928  796.3104  -6.704       79.33 0.489
  888.1164  922.5109  -8.876  885.0821  796.0706  -8.875      522.30 0.093
  307.3589  887.1037  -9.897  299.8605  797.0279  -9.902     1333.61 0.052
  698.3496  911.3870  -8.462  694.0454  796.8053  -8.463      373.44 0.109
  183.5039  880.5424  -6.368  174.8043  798.2374  -6.374       47.29 0.439
  218.8772  882.0459  -7.235  210.5301  797.5206  -7.240       73.98 0.315
  661.6508  910.4942  -7.507  657.0776  798.2130  -7.508      147.81 0.186
  255.0403  885.9854  -8.927  247.0353  799.1951  -8.932      546.87 0.075
  229.5715  884.9434  -7.061  221.3167  799.7518  -7.067       80.28 0.326
  245.7145  885.9980  -8.019  237.6163  799.7939  -8.024      222.91 0.113
  935.5532  928.8976  -9.249  932.7862  799.4840  -9.248      652.51 0.080
  419.4271  898.4781  -8.834  412.9176  801.3808  -8.838      469.01 0.078
  502.6768  903.3996 -10.006  496.8642  801.0845 -10.009     1558.32 0.076
  724.2601  917.6496  -7.873  720.1573  801.4722  -7.874      165.91 0.188
  198.2163  885.3349 -10.251  189.6397  802.1153 -10.257     1764.76 0.034
 1002.2054  935.7540  -7.082  999.8001  802.1618  -7.080       94.02 0.387
   44.5329  876.2796 -10.185   34.3778  802.7027 -10.192     1664.38 0.026
  447.2910  902.1000  -7.547  441.0099  803.2589  -7.551      173.10 0.203
  688.3001  917.2847  -9.426  683.8979  803.3369  -9.427      789.56 0.071
  986.2486  935.3933  -8.310  983.7552  802.8016  -8.308      320.42 0.092
  674.7011  917.4400  -6.219  670.1971  804.3453  -6.221       50.50 0.466
  782.1062  923.9057  -8.672  778.3807  804.1065  -8.672      392.09 0.072
  797.3960  924.6288  -8.544  793.7708  803.8719  -8.544      385.00 0.114
  434.4259  903.3574  -6.651  428.0259  805.3256  -6.654       77.51 0.301
  718.9083  920.6895  -8.309  714.7552  804.8491  -8.310      372.40 0.167
  561.4214  911.7526  -7.277  556.0566  805.7608  -7.279      169.21 0.352
  302.4972  897.7885  -7.100  294.8958  808.0374  -7.105      100.62 0.250
  869.8494  933.1016  -7.229  866.6628  807.8078  -7.228      105.07 0.228
  348.7691  901.6032  -9.165  341.5915  808.9503  -9.169      637.52 0.052
  489.2305  910.7715  -7.442  483.2697  809.3096  -7.445      179.97 0.421
  647.6246  920.6761 -10.514  642.9022  809.2826 -10.516     2387.87 0.035
  444.0149  908.9487  -9.354  437.6720  810.3229  -9.358      751.84 0.068
  479.5030  911.1918  -6.856  473.4572  810.3411  -6.859      105.25 0.481
  711.6688  925.2604  -8.441  707.4454  809.8764  -8.442      301.07 0.160
  639.4433  923.9204  -9.707  634.6444  813.0432  -9.709     1093.51 0.077
  401.6465  910.5665  -8.499  394.9156  814.6050  -8.503      349.00 0.102
  650.4953  926.1826  -9.805  645.7718  814.6136  -9.806     1199.87 0.057
  331.0520  907.5546  -9.319  323.6753  816.0259  -9.324      766.47 0.063
  494.4930  917.3942  -7.915  488.5460  815.6106  -7.918      260.54 0.224
  910.1205  943.8685  -7.269  907.1488  816.0504  -7.268      104.20 0.344
   26.7289  890.5813  -6.672   16.2960  818.1509  -6.679       60.19 0.452
  202.2974  901.4939  -6.007  193.6712  818.0528  -6.013       33.24 0.472
  694.0336  932.4008  -6.562  689.6122  818.1038  -6.563       67.50 0.406
  658.4681  930.6929  -9.759  653.7866  818.6272  -9.761     1077.15 0.057
  951.8186  948.9778  -9.375  949.0817  818.5445  -9.374      739.85 0.100
  101.9929  896.6310 -10.313   92.3433  819.4891 -10.319     1673.86 0.030
  109.4037  898.5837  -7.967   99.8222  820.9802  -7.974      214.87 0.156
  866.6684  946.0210  -7.913  863.4159  820.9293  -7.912      174.57 0.206
  926.6294  949.4902  -8.194  923.7397  820.6372  -8.193      270.44 0.104
  245.6365  907.7473  -6.949  237.4186  821.5922  -6.954       82.58 0.348
  641.4778  933.1517  -6.585  636.6556  822.1550  -6.587       75.01 0.296
  886.0181  947.9374  -8.240  882.8818  821.6322  -8.239      285.39 0.138
  977.5691  953.6257  -9.720  974.9680  821.5774  -9.718     1110.46 0.040
  663.0672  935.6781  -9.402  658.3999  823.3279  -9.404      726.61 0.084
  966.9354  954.2521  -8.467  964.2703  822.8709  -8.466      343.47 0.216
   86.8499  899.6966  -8.574   77.0182  823.5153  -8.581      356.65 0.302
   76.6031  900.0650  -8.329   66.6574  824.5296  -8.336      265.11 0.135
  460.3890  924.6516  -7.174  454.1138  825.0205  -7.177      126.43 0.288
  203.7549  909.7542  -8.155  195.0972  826.2397  -8.160      237.16 0.140
  307.4670  916.2693  -8.737  299.8173  826.2403  -8.742      456.05 0.099
   93.3498  903.0359  -7.879   83.5687  826.4538  -7.885      179.94 0.188
  237.1165  912.1382  -8.773  228.7881  826.5287  -8.778      407.12 0.094
  598.3402  934.8458  -7.738  593.1716  826.5603  -7.740      170.80 0.239
  148.1457  907.9923  -7.830  138.9212  827.9734  -7.836      219.71 0.138
  754.2425  945.8595 -12.052  750.2402  827.8179 -12.053     9881.10 0.028
  704.9031  943.6648  -9.178  700.5562  828.7174  -9.179      611.74 0.073
  370.1295  924.3052 -10.481  363.0376  830.3488 -10.485     2138.34 0.045
  796.5349  950.2687  -9.738  792.8073  829.5764  -9.738     1046.13 0.080
  524.6322  935.2135 -17.897  518.8570  831.5602 -17.900 14207712.00 0.000
 1009.8227  965.2274  -6.500 1007.3676  831.1541  -6.498       52.64 0.491
  782.0874  951.2822 -10.647  778.2574  831.4968 -10.648     2302.34 0.051
  298.1117  921.9962  -8.740  290.3404  832.5673  -8.745      396.46 0.091
  808.4656  954.4252  -6.580  804.8028  832.9865  -6.580       69.51 0.381
  142.7908  914.2940  -9.841  133.4732  834.6273  -9.847     1048.53 0.043
  175.8068  917.1065  -8.475  166.8192  835.3681  -8.481      339.61 0.116
  497.9219  936.5485  -9.087  491.9146  834.5758  -9.090      534.07 0.391
  220.5776  921.4259  -7.596  212.0284  836.8784  -7.602      165.60 0.174
  278.6543  924.9090  -7.141  270.6749  836.7111  -7.146       85.31 0.230
   54.2547  912.9673  -6.657   43.9851  838.8726  -6.664       80.41 0.413
  407.3302  935.4846 -10.864  400.5277  839.2072 -10.868     2956.69 0.025
   96.8828  917.2017  -8.155   87.0560  840.4332  -8.162      247.64 0.150
  738.2766  958.8902  -8.429  734.1100  841.8591  -8.430      397.88 0.147
  194.0055  925.4488  -7.041  185.1586  842.5846  -7.047       92.05 0.269
  367.3917  937.4261  -6.918  360.2076  843.6660  -6.922       69.41 0.353
  583.8181  949.9733  -6.329  578.4663  842.6179  -6.331       69.83 0.498
  821.4349  964.2650  -6.507  817.8223  842.0173  -6.507       51.59 0.444
  832.0161  965.6919  -6.794  828.4684  842.7809  -6.794       78.41 0.486
  158.5868  924.0835  -8.727  149.3791  843.4463  -8.733      363.08 0.067
  179.9931  926.0427  -7.117  170.9979  844.0622  -7.123       95.19 0.206
  502.3025  947.1813 -10.329  496.2831  844.9487 -10.332     1763.26 0.213
  380.2978  941.4234  -6.455  373.2148  846.8582  -6.460       59.97 0.430
   84.7932  924.3590  -8.018   74.7920  848.3707  -8.025      216.87 0.152
  883.1433  973.7041  -6.862  879.8986  847.5871  -6.862       74.84 0.284
  354.9990  942.1074  -8.825  347.6738  849.1365  -8.830      487.31 0.089
  845.7039  972.1134  -8.574  842.2228  848.3464  -8.574      320.38 0.108
   70.9800  926.5038  -7.019   60.8141  851.3917  -7.026       91.04 0.285
  265.5546  937.8496 -10.609  257.3743  850.5048 -10.614     2065.08 0.073
  283.7935  939.8215  -6.921  275.7859  851.3315  -6.926       73.42 0.266
  657.4046  965.5457  -7.160  652.5693  853.5801  -7.162      115.03 0.276
  777.7882  973.3840 -15.070  773.8440  853.8821 -15.071  1053043.50 0.000
  816.0788  976.1823  -7.136  812.3862  854.2775  -7.136       94.51 0.247
  866.9962  979.5266  -7.304  863.6266  854.4264  -7.304      110.59 0.319
  997.2568  986.8887  -8.182  994.6627  853.6063  -8.181      261.07 0.112
  279.1263  943.1771  -8.137  271.0541  854.9886  -8.142      266.28 0.119
  380.9251  951.6775  -9.181  373.7965  857.0921  -9.185      738.50 0.088
  898.4738  984.2628  -6.318  895.2902  857.1868  -6.317       48.10 0.487
  316.9824  948.8571  -6.819  309.2560  858.2944  -6.824       70.63 0.299
  697.9475  973.6493  -7.695  693.3876  859.1418  -7.697      153.39 0.160
  816.4439  982.0596  -7.166  812.7319  860.1354  -7.166       94.93 0.353
  882.1310  987.2842  -9.633  878.8320  861.2365  -9.632      984.84 0.046
  119.0806  939.8837  -8.761  109.3603  861.7759  -8.768      386.53 0.096
  235.0158  947.5747  -7.691  226.4706  862.1777  -7.697      157.16 0.159
  578.2526  969.2003  -9.580  572.7706  862.2197  -9.583      868.85 0.216
  225.1733  948.0631  -7.031  216.5234  863.2883  -7.036       83.19 0.366
   94.5973  941.0544  -9.775   84.6040  864.4932  -9.782      927.37 0.090
  175.5161  945.2471  -7.224  166.3645  863.5963  -7.230       86.51 0.265
  263.9279  951.2436  -7.513  255.6589  864.0315  -7.519      143.13 0.245
  367.2078  958.5615  -8.597  359.9150  864.8538  -8.602      434.16 0.086
  875.1390  991.0368  -6.739  871.7814  865.4305  -6.739       74.86 0.431
  488.7593  967.1270  -8.529  482.5298  865.7778  -8.532      323.73 0.462
  681.2020  978.8554  -9.150  676.4941  865.4068  -9.152      508.75 0.063
   25.0943  939.3719  -8.473   14.3447  867.1815  -8.480      295.27 0.215
  817.5093  989.1346  -7.187  813.7783  867.1481  -7.187      105.35 0.226
  840.2800  990.2228 -11.411  836.6974  866.8062 -11.411     5354.88 0.024
   16.4187  940.0530  -8.499    5.5652  868.4120  -8.506      270.76 0.187
   93.5362  946.0689 -10.198   83.5016  869.5884 -10.205     1466.90 0.056
  925.1053  998.3068  -9.848  922.0416  869.5628  -9.847     1224.75 0.046
  973.1766 1002.3192  -8.375  970.3930  870.5551  -8.374      268.61 0.125
  101.5466  949.1001  -7.714   91.5816  872.1228  -7.721      167.32 0.182
  133.2226  950.7086  -8.934  123.5910  871.7382  -8.941      454.61 0.100
  418.6441  968.5806  -7.018  411.7819  871.6508  -7.022       89.09 0.287
  871.0083  997.5101  -6.615  867.6008  872.1670  -6.615       73.44 0.413
  904.7463  999.1387 -10.294  901.5513  871.6750 -10.293     1625.55 0.038
  735.6519  989.5741 -10.552  731.3451  872.7331 -10.553     2316.70 0.054
   77.7275  949.2547  -7.708   67.4998  873.7801  -7.715      164.64 0.205
  413.4235  970.5462  -6.549  406.5034  873.9493  -6.554       74.44 0.403
  516.4343  976.5795  -9.000  510.3998  873.5026  -9.004      493.65 0.125
  752.2843  991.8676  -8.489  748.0885  873.9828  -8.491      400.90 0.110
  299.5542  964.1798  -8.069  291.5754  874.7495  -8.075      207.33 0.161
  690.7255  989.4014 -10.733  686.0469  875.3646 -10.734     2792.23 0.038
  921.4157 1004.3129  -7.818  918.3086  875.8036  -7.818      178.31 0.175
  275.5089  965.3835  -7.392  267.2814  877.4735  -7.397      108.92 0.219
  416.9646  976.8517  -8.125  410.0461  880.0438  -8.129      281.49 0.107
  234.5768  966.5762  -8.624  225.9221  881.2533  -8.630      352.39 0.136
  375.3084  974.7200 -10.370  368.0107  880.5345 -10.375     1928.85 0.041
   96.5884  958.9785  -9.218   86.5106  882.3416  -9.225      581.08 0.070
  512.6344  984.2267  -8.714  506.5320  881.4017  -8.717      351.94 0.106
  787.6800 1002.0735  -7.553  783.6953  881.9717  -7.554      137.08 0.401
  596.6132  992.3551  -8.751  591.1801  884.2502  -8.754      474.19 0.113
  655.1017  995.3817  -6.709  650.1236  883.5956  -6.712       83.89 0.359
   33.5009  958.1072  -8.244   22.7334  885.4424  -8.251      249.80 0.088
  609.6957  995.3188  -6.992  604.3561  886.3937  -6.994       82.34 0.370
  825.9646 1008.2716 -12.403  822.2200  885.7671 -12.403    12981.86 0.102
  877.1838 1011.4906  -6.875  873.7673  885.7672  -6.874       73.14 0.326
  462.5863  986.2346  -6.279  456.0355  886.5681  -6.283       65.13 0.476
  575.9937  993.3853  -8.323  570.3862  886.5814  -8.326      297.21 0.197
  800.8496 1008.0513 -10.188  796.9339  887.1262 -10.189     1747.81 0.065
  969.7040 1018.0483  -9.268  966.8488  886.5085  -9.267      671.36 0.073
  594.7387  997.0891  -8.650  589.2696  889.1092  -8.652      394.44 0.208
  690.2604 1003.1740 -10.199  685.5220  889.1822 -10.201     1570.20 0.047
  961.2291 1020.2425  -7.436  958.3154  889.2367  -7.435      125.04 0.364
  328.7368  981.4558  -7.625  320.9565  890.2228  -7.630      154.73 0.194
  343.9357  982.4569  -6.814  336.2981  890.2670  -6.820       70.47 0.416
  295.7929  980.5594  -7.110  287.6900  891.4043  -7.115       76.16 0.396
  745.8406 1008.3155  -7.013  741.5339  890.8515  -7.015       90.45 0.282
  760.9026 1009.3953  -7.544  756.7003  890.9846  -7.546      142.50 0.200
  794.0972 1012.0939 -13.127  790.1193  891.5971 -13.128    23310.30 0.093
  976.1836 1024.3665  -8.738  973.3470  892.4218  -8.737      351.53 0.103
   94.9790  969.4679  -9.651   84.8211  892.9627  -9.658     1067.74 0.085
  304.9926  982.3239  -7.287  296.9731  892.5919  -7.292      134.73 0.306
  565.8294  999.0844  -7.564  560.1118  892.9300  -7.567      187.71 0.172
  778.8966 1012.9520 -10.477  774.8087  893.4123 -10.478     2077.31 0.032
  444.5881  992.7178  -9.651  437.8441  894.1988  -9.655     1060.82 0.059
  258.9630  981.7672  -9.937  250.4779  894.9418  -9.943     1252.37 0.051
  982.7480 1027.7338  -7.329  979.9400  895.3776  -7.328      145.75 0.349
   52.6999  969.9015  -9.152   42.0684  896.0665  -9.159      671.62 0.077
  939.0053 1025.3545 -10.856  935.9376  895.7495 -10.855     3355.34 0.036
  383.2371  991.1502  -8.437  375.9318  896.4991  -8.442      310.99 0.083
  270.9060  986.6961  -7.070  262.5172  899.1282  -7.076       77.08 0.247
  319.6120  990.2121  -9.312  311.6967  899.5753  -9.318      683.97 0.080
  789.7496 1020.2039 -11.205  785.7106  899.9880 -11.206     4451.47 0.045
  927.6790 1028.4107  -8.372  924.5298  899.5202  -8.372      255.06 0.152
  424.0161  998.2917  -7.172  417.0570  901.0821  -7.176      111.21 0.223
  444.1980  999.4996  -8.595  437.4176  901.0187  -8.599      344.33 0.316
  525.9391 1004.6507 -10.289  519.8574  901.0216 -10.292     2118.10 0.043
  819.2842 1022.7816  -8.695  815.4404  900.7091  -8.696      402.45 0.091
  331.6275  994.5734 -10.314  323.8077  903.1880 -10.319     2006.00 0.038
  463.6419 1002.8026  -7.915  457.0212  903.1010  -7.919      168.90 0.309
  436.6764 1002.8130  -9.811  429.8113  904.8135  -9.816     1211.58 0.069
  758.7068 1023.6664  -8.475  754.4332  905.4082  -8.477      304.86 0.085
  946.1481 1035.1448  -7.546  943.0924  905.0959  -7.545      147.66 0.242
  233.3381  990.9483  -7.272  224.5358  905.7662  -7.278      105.07 0.323
  678.1021 1018.6037  -6.312  673.2067  905.3975  -6.314       52.05 0.440
  591.3731 1014.4914 -10.272  585.8001  906.7502 -10.275     1884.04 0.070
  612.8980 1015.4898  -7.040  607.4973  906.3921  -7.043       81.09 0.286
  691.9651 1021.4250  -9.323  687.1652  907.3482  -9.325      707.93 0.056
  118.7338  986.8855  -8.481  108.7335  908.9314  -8.488      348.99 0.085
   60.1547  984.0267 -11.041   49.5219  909.7639 -11.049     3471.20 0.032
 1000.5555 1043.7480  -9.863  997.8013  910.2755  -9.862     1206.35 0.057
 1020.7119 1044.8519  -6.924 1018.0707  910.1074  -6.923       84.89 0.254
  401.2517 1006.6908  -8.659  394.0388  910.9362  -8.664      441.75 0.081
  743.3937 1028.1997 -10.948  738.9908  910.9108 -10.949     3762.98 0.037
  916.9432 1038.5951  -8.198  913.6912  910.3870  -8.197      220.44 0.198
  279.4021 1001.1374  -6.895  271.0599  913.0615  -6.901       95.40 0.385
  359.8796 1007.1533  -9.765  352.3075  914.0035  -9.770     1179.89 0.050
  449.4874 1012.8901  -9.874  442.7290  914.0912  -9.878     1226.00 0.082
  571.8578 1019.9769 -13.423  566.1282  913.4795 -13.426    30812.25 0.027
  681.5891 1027.6224  -6.982  676.7117  914.2156  -6.984      104.05 0.340
  630.5337 1025.9270  -7.363  625.2602  915.7376  -7.366      119.35 0.249
  767.5911 1034.8031 -10.322  763.3465  915.9847 -10.324     1940.05 0.040
  867.9812 1040.7802  -7.666  864.4059  915.6370  -7.666      166.38 0.200
  160.6994  996.9468  -6.433  151.1370  916.3603  -6.440       63.08 0.426
  541.2398 1023.6523  -6.764  535.2336  919.0932  -6.767       78.00 0.349
   46.1024  994.6798  -7.293   35.2921  921.3308  -7.301      107.98 0.389
  440.1612 1018.5661  -7.168  433.2909  920.3669  -7.173       93.12 0.480
  621.2588 1030.3781  -7.257  615.8909  920.7808  -7.260      124.54 0.300
  910.9617 1048.5653  -7.057  907.6405  920.7189  -7.057       85.24 0.292
  148.6021 1001.5347  -6.381  138.8841  921.7259  -6.388       56.87 0.425
  450.4116 1021.5641  -6.376  443.6196  922.7251  -6.380       58.88 0.435
  641.1291 1034.9041  -7.218  635.9019  924.0601  -7.220      107.31 0.265
  730.2344 1040.5377  -6.759  725.6936  924.0834  -6.761       71.31 0.272
  390.6450 1020.1585  -7.244  383.3037  925.0920  -7.249       96.36 0.307
  708.7454 1040.4538  -8.167  704.0437  925.3556  -8.169      248.60 0.130
   60.8275 1000.5360  -7.577   50.1482  926.2743  -7.585      150.76 0.185
  157.4643 1006.2220 -10.121  147.8148  925.8665 -10.128     1723.39 0.037
  510.4825 1029.2522  -8.343  504.1859  926.6421  -8.347      304.98 0.130
  111.0896 1005.5629  -9.605  100.9404  928.1378  -9.613     1073.36 0.047
  785.9011 1048.1686 -10.598  781.7352  928.2108 -10.599     2492.52 0.042
  170.9472 1010.0798  -7.480  161.4199  928.8828  -7.487      121.84 0.209
  317.9212 1019.1278  -8.967  309.8733  928.6621  -8.973      522.87 0.099
  354.9573 1021.1455  -6.873  347.2655  928.3401  -6.879       63.49 0.337
  264.8418 1016.8353  -6.800  256.2661  929.7198  -6.806       67.62 0.330
  590.4376 1037.2898 -10.414  584.7858  929.6490 -10.417     1907.88 0.132
  446.5625 1029.5088  -8.899  439.6973  930.9295  -8.904      536.45 0.087
  368.2762 1025.9819  -7.193  360.6897  932.3450  -7.198      104.61 0.283
  526.0941 1035.3823  -7.692  519.9041  931.7997  -7.696      182.86 0.161
  713.2784 1046.9145  -7.156  708.5842  931.5392  -7.158       86.66 0.284
  794.2831 1052.3741  -6.598  790.1605  931.8924  -6.599       54.62 0.460
  151.4355 1013.0630  -8.127  141.6823  933.1085  -8.135      243.00 0.226
  192.2103 1017.7241  -9.268  182.8658  935.2043  -9.275      701.56 0.111
  156.7182 1017.4031 -10.546  146.9972  937.1272 -10.553     2600.05 0.036
  224.3957 1021.2985  -6.939  215.3729  936.7528  -6.946       95.55 0.333
  821.6626 1058.9665  -9.363  817.7070  936.7643  -9.364      803.23 0.081
  242.1860 1023.4108 -10.408  233.3391  937.7456 -10.414     2037.27 0.032
  401.4931 1033.0778  -6.831  394.1909  937.3546  -6.836       62.55 0.326
  704.4603 1052.9999  -9.828  699.6738  938.1901  -9.830     1164.76 0.041
  415.5336 1035.0474  -6.636  408.3551  938.4399  -6.641       58.33 0.419
   31.1671 1012.5984  -7.611   20.0336  940.2281  -7.619      145.32 0.201
  905.3392 1067.8032  -7.259  901.9149  940.3286  -7.259      110.50 0.252
  878.8095 1066.4667  -8.576  875.2144  940.6654  -8.577      374.68 0.108
  963.1935 1071.9347  -9.689  960.1234  940.8123  -9.688     1165.75 0.057
  106.2130 1019.0718  -8.503   95.9306  941.9967  -8.511      356.78 0.103
  300.6285 1031.5251  -6.749  292.3408  942.1850  -6.755       70.48 0.323
  491.7522 1043.2385  -7.957  485.2260  941.8376  -7.961      215.17 0.206
  655.9914 1054.6777 -10.565  650.7980  942.9267 -10.568     2572.42 0.042
  768.8133 1061.9388  -9.766  764.4705  943.0772  -9.768     1087.74 0.047
   19.8696 1016.0988 -10.793    8.5835  944.4556 -10.801     2476.14 0.027
  740.7692 1060.6130  -6.799  736.2253  943.5208  -6.801       67.22 0.399
  872.4212 1069.4678  -8.420  868.7725  944.0730  -8.420      350.20 0.113
   42.5971 1018.3277 -10.218   31.6018  945.2773 -10.226     1582.35 0.040
  148.6130 1024.7324  -8.951  138.7627  944.9912  -8.958      548.50 0.094
  308.2532 1036.2419  -8.929  300.0178  946.4319  -8.935      498.04 0.095
  238.5877 1032.6186  -8.034  229.6531  947.2065  -8.040      214.75 0.163
  274.4658 1034.8509 -10.449  265.8927  947.1748 -10.455     2221.41 0.031
  433.7623 1044.8753  -6.643  426.7057  947.1380  -6.648       87.77 0.477
  620.3198 1056.2139  -9.679  614.8313  946.7186  -9.682     1097.93 0.052
  638.8873 1059.1565  -6.767  633.5372  948.4933  -6.769       66.38 0.300
  154.2555 1030.6632  -9.428  144.4325  950.5829  -9.436      731.50 0.058
  447.0804 1049.1237  -8.455  440.1250  950.5553  -8.459      327.94 0.160
  490.2046 1052.0153  -7.026  483.6232  950.7306  -7.031       78.53 0.359
  780.6171 1070.1984  -7.661  776.3275  950.6022  -7.663      143.86 0.177
  873.2418 1076.6626  -7.564  869.5729  951.2239  -7.565      109.11 0.272
  467.0837 1051.7225  -9.181  460.2971  951.8969  -9.186      700.86 0.064
  307.3110 1042.7490  -9.573  299.0317  953.0158  -9.579     1039.70 0.052
  452.6712 1051.4581  -8.271  445.7554  952.5420  -8.276      242.92 0.170
  539.9988 1058.0285 -10.284  533.8244  953.6124 -10.288     1816.89 0.046
  684.6452 1067.9335  -6.936  679.6221  954.3938  -6.938       74.51 0.291
  574.3939 1062.0066  -7.432  568.4967  955.4240  -7.435      114.29 0.194
  880.7782 1082.0047 -10.078  877.1410  956.0959 -10.078     1594.83 0.047
  714.8956 1071.7512  -6.544  710.1111  956.3104  -6.547       56.96 0.409
  198.3363 1041.7755  -8.372  188.9236  958.9376  -8.379      310.74 0.126
  242.2680 1044.5630 -10.413  233.3073  958.9517 -10.420     2098.53 0.036
  449.1676 1057.9063  -9.380  442.1888  959.2263  -9.385      717.98 0.093
  459.4010 1057.7358  -6.853  452.5161  958.4090  -6.858       70.28 0.369
  776.0285 1079.0003  -9.304  771.6712  959.7063  -9.305      697.08 0.096
  414.7093 1057.0212  -7.381  407.4145  960.5181  -7.386      105.09 0.218
  563.0128 1067.9743  -8.922  556.9916  962.1229  -8.926      543.86 0.199
  705.9711 1076.9508  -7.747  701.0966  962.0823  -7.749      158.78 0.224
  173.5688 1043.9366 -10.568  163.8794  962.6737 -10.576     2515.53 0.030
   52.3448 1037.7719  -7.881   41.3423  964.1695  -7.890      205.52 0.182
  250.2379 1049.9370  -7.465  241.3318  963.8364  -7.472      129.07 0.202
  999.5967 1097.1352  -7.410  996.6685  963.7335  -7.409      107.73 0.259
  468.7389 1065.0246  -9.583  461.9036  965.1245  -9.587     1054.39 0.073
  671.2160 1077.7934  -8.591  666.0454  965.1188  -8.594      373.72 0.305
  837.4072 1088.4101  -9.473  833.4509  965.2495  -9.475      749.37 0.063
  870.3871 1089.9128  -7.198  866.6512  964.6698  -7.198      101.01 0.299
  602.0061 1074.2034  -8.768  596.2870  965.8982  -8.771      566.30 0.402
  718.9607 1080.8567  -7.654  714.1697  965.1731  -7.656      128.62 0.262
  744.9837 1083.9603  -8.014  740.3771  966.6361  -8.016      191.17 0.156
   60.6612 1041.9666  -9.305   49.7287  967.8514  -9.314      776.63 0.051
  229.7292 1052.6398  -7.376  220.5921  967.8459  -7.383      112.38 0.258
   22.6770 1041.0196  -7.378   11.2771  969.2841  -7.386      123.38 0.255
   69.6326 1043.2013  -9.014   58.7951  968.5216  -9.022      528.84 0.069
  778.2332 1088.9846  -8.780  773.8528  969.5655  -8.782      428.52 0.146
  831.4021 1093.8531  -7.394  827.3837  971.0793  -7.395      139.36 0.293
  714.3090 1087.5834  -6.850  709.4545  972.2049  -6.853       72.43 0.362
   62.0601 1048.3848  -7.645   51.1047  974.2028  -7.654      128.52 0.466
  353.0989 1066.6884 -12.810  345.1548  974.1166 -12.816    20875.77 0.021
  610.8372 1083.0598  -8.889  605.1527  974.2130  -8.893      509.85 0.093
  191.7348 1056.9457  -7.234  182.1680  974.5718  -7.241       97.87 0.335
  950.8144 1105.7247 -11.377  947.5545  975.4150 -11.377     4272.43 0.030
  939.5700 1105.3086  -8.107  936.2393  975.7095  -8.107      251.82 0.138
  527.8822 1080.6339 -11.188  521.4987  977.0305 -11.192     3957.00 0.030
  365.5255 1071.1363  -7.509  357.6819  977.7880  -7.514      125.02 0.304
  747.3855 1095.9687  -7.341  742.7487  978.5114  -7.343       93.32 0.217
  418.7355 1077.0107  -8.518  411.3807  980.3024  -8.524      297.31 0.124
  473.1356 1080.4048 -11.744  466.2666  980.2627 -11.748     7119.93 0.020
  613.9603 1089.4368  -9.574  608.2737  980.4048  -9.577      824.66 0.049
  138.1868 1059.6024 -10.359  128.0224  980.6311 -10.367     2007.80 0.052
  932.8235 1109.6560  -8.174  929.4344  980.4882  -8.175      212.49 0.150
  515.0131 1084.6262 -10.559  508.4982  981.8454 -10.563     2187.09 0.030
  562.1398 1087.6916  -6.984  556.0219  981.9356  -6.988      103.35 0.288
  152.0145 1062.4234  -7.703  141.9861  982.5845  -7.711      176.71 0.282
  392.6899 1078.0673  -7.120  385.0781  983.0141  -7.125      131.08 0.347
  457.0151 1081.4996  -9.268  449.9942  982.3798  -9.273      635.66 0.084
  586.0991 1090.1265  -9.384  580.1754  982.8590  -9.387      882.84 0.078
  690.3263 1097.6624  -7.613  685.2231  983.8138  -7.616      176.58 0.262
  271.0049 1072.8906  -7.605  262.1922  985.5412  -7.611      121.27 0.173
  913.1928 1112.7482 -10.626  909.6642  984.8258 -10.626     2455.06 0.106
   56.4137 1059.7997  -6.882   45.3239  986.0156  -6.890       80.55 0.300
  599.2693 1094.3809  -8.523  593.4380  986.2884  -8.527      338.10 0.153
  427.0508 1083.7040  -9.120  419.7422  986.4858  -9.125      528.42 0.090
  864.9734 1112.0502 -10.251  861.1210  987.1779 -10.252     1809.99 0.038
   99.6438 1064.6664  -8.691   89.0190  988.1566  -8.699      421.60 0.134
  548.4249 1093.9529  -7.760  542.1595  989.0785  -7.764      186.38 0.132
  645.9832 1099.5821  -7.975  640.5164  988.5432  -7.978      189.11 0.183
  201.9637 1073.1991 -10.738  192.4166  990.2272 -10.746     2601.13 0.037
  211.7245 1073.2096  -9.905  202.2826  989.6189  -9.913     1272.08 0.054
  236.2826 1075.9511 -10.994  227.0883  990.8118 -11.001     3846.62 0.032
  386.1231 1085.2913  -8.876  378.4107  990.6741  -8.881      483.77 0.080
  561.3415 1096.6218 -10.940  555.1763  990.9353 -10.944     3700.47 0.028
  585.5461 1097.9883  -9.263  579.5825  990.7721  -9.267      722.31 0.081
  252.2285 1078.1670  -6.785  243.1908  992.0236  -6.792       70.72 0.391
  677.5201 1105.2610 -10.584  672.2834  992.2366 -10.587     1786.44 0.462
  313.6227 1084.1419  -6.401  305.1888  994.1242  -6.407       50.91 0.402
  426.7508 1090.5427  -6.913  419.4059  993.3611  -6.919       74.46 0.484
  889.2444 1120.8206 -10.039  885.5268  994.4240 -10.040     1201.65 0.045
  915.4819 1122.6293  -6.978  911.9344  994.5741  -6.978       86.66 0.377
   37.9341 1068.6864  -7.439   26.5750  996.1071  -7.448      117.65 0.270
  169.3528 1076.6839  -6.096  159.4335  995.7917  -6.103       40.49 0.490
  996.2336 1129.5590  -9.544  993.1813  996.4001  -9.544      861.08 0.089
  442.7739 1095.6533  -5.985  435.5533  997.4705  -5.990       32.90 0.453
  847.4065 1120.6014  -8.987  843.4011  996.8526  -8.988      589.41 0.119
   67.6031 1071.9110  -8.615   56.5691  997.4598  -8.624      308.91 0.102
  634.2103 1108.2044 -12.673  628.6096  997.9277 -12.677    16905.22 0.019
  713.1813 1113.3535  -9.010  708.2115  998.0908  -9.013      599.56 0.175
  933.7459 1127.2384  -7.201  930.3032  998.0328  -7.202      109.41 0.252
   79.9914 1073.9422  -6.989   69.0875  998.7118  -6.997       92.82 0.329
  495.0228 1099.9881  -6.537  488.2582  998.5078  -6.541       55.09 0.425
  509.5795 1101.6225  -6.448  502.9372  999.2246  -6.452       45.40 0.494
  724.3466 1114.7881  -9.811  719.4575  998.8208  -9.813     1061.12 0.064
  654.2132 1112.1160  -9.440  648.7595 1000.5803  -9.443      848.41 0.071
  344.1978 1093.4973 -10.124  336.0262 1001.5649 -10.130     1554.06 0.031
  381.2042 1096.5982  -8.949  373.3863 1002.3243  -8.955      465.80 0.119
  996.0913 1135.4217  -8.513  993.0193 1002.2779  -8.513      313.07 0.189
   39.0924 1075.2316  -7.062   27.7065 1002.6027  -7.071       89.94 0.363
  113.8523 1079.7079  -7.564  103.2994 1002.3481  -7.572      114.12 0.240
  541.5738 1108.1938  -7.524  535.1832 1003.7852  -7.528      141.16 0.220
  136.4154 1083.1992  -7.276  126.0952 1004.4191  -7.284       98.85 0.243
  208.8277 1088.1420  -7.079  199.2726 1004.7821  -7.087      114.19 0.253
   73.6824 1080.8573  -8.261   62.6645 1006.0522  -8.269      294.15 0.132
  524.8324 1109.8365  -7.847  518.2870 1006.4922  -7.852      169.36 0.177
  637.1218 1117.3269 -10.077  631.5056 1006.8842 -10.081     1368.21 0.125
  865.6019 1131.6084  -6.986  861.6831 1006.7239  -6.987       86.62 0.297
  125.5384 1086.2062 -10.161  115.0791 1008.1270 -10.169     1766.15 0.035
  349.1268 1099.7438  -8.073  340.9726 1007.5163  -8.079      234.88 0.167
  583.9728 1114.5976 -12.151  577.9215 1007.5167 -12.155     9768.45 0.024
  913.1543 1136.5062  -9.958  909.5433 1008.6164  -9.959     1162.23 0.047
  466.3643 1109.1705 -10.449  459.2961 1009.5282 -10.454     2026.24 0.033
  531.5890 1113.1028  -7.669  525.0880 1009.3382  -7.673      148.00 0.158
  574.5013 1117.6923 -10.072  568.3547 1011.2185 -10.076     1087.91 0.496
  935.7844 1140.1256  -7.182  932.3114 1010.8071  -7.182       96.96 0.274
  214.3024 1095.8104  -6.505  204.7645 1012.1279  -6.512       56.35 0.434
  263.2767 1098.2946  -8.229  254.2467 1011.5124  -8.236      247.85 0.160
  603.8405 1121.5898  -9.390  597.9273 1013.2650  -9.394      775.40 0.116
  664.2852 1124.6867  -8.326  658.8596 1012.5380  -8.330      301.86 0.134
  654.4482 1125.4220 -10.634  648.9394 1013.8982 -10.638     2799.38 0.031
  727.8107 1132.2961  -6.342  722.8767 1016.1414  -6.345       48.05 0.493
  941.3627 1145.7837 -10.251  937.9072 1016.1192 -10.252     1845.12 0.056
  582.5761 1124.5672  -8.773  576.4683 1017.5970  -8.777      396.43 0.164
  869.5990 1144.2431  -6.809  865.6623 1019.1245  -6.811       76.42 0.402
#
#....u.... ....v.... ...w... ....X.... ....Y.... ...M... .....p..... ..q..  
#
#  (01)      (02)     (03)     (04)      (05)     (06)      (07)     (08)   
#
