#
#--------------------------------------------
# ARGUMENTS
#--------------------------------------------
#  ARG0000: /g/lu/code/fortran/hst1pass/CODE/hst1pass/hst1pass
#  ARG0001: HMIN=5
#  ARG0002: FMIN=25
#  ARG0003: PSF=/g/lu/code/fortran/hst1pass/LIB/PSFs/STDPSFs/WFC3UV/STDPSF_WFC3UV_F814W.fits
#  ARG0004: GDC=/g/lu/code/fortran/hst1pass/LIB/GDCs/STDGDCs/WFC3UV/STDGDC_WFC3UV_F814W.fits
#  ARG0005: PMAX=99999
#  ARG0006: CMIN=-1.0
#  ARG0007: CMAX=0.1
#  ARG0008: QMAX=0.5
#  ARG0009: PERT=0
#  ARG0010: WCS=MAT
#  ARG0011: ART_UVW=FAKE.UVW
#  ARG0012: SHOW_ART-
#  ARG0013: OUT=uvwXYMpq
#  ARG0017: ../00.DATA/ie8j01xoq_flt.fits
#
#=================================
# WFC3/UVIS POSTFLASH INFO
#
# FLSHCORR: 'COMPLETE'
# FLASHDUR:                  3.9               3.90
# FLASHLVL:                   10              10.00
# FLASHLVL:                   10              10.00
# FLASHCUR: 'LOW    '                           L
# SHUTRPOS: 'A    '                             A
# DARKTIME:            96.707296              96.71
# DARKEST :                                    1.03 2020.20
#
#
#================================
# BASIC STAR-FINDING PARAMETERS
#
# FILENAME: ../00.DATA/ie8j01xoq_flt.fits
#   NAXIS1:  4096
#   NAXIS2:  4096
#
#   CRPIX1:     512.0000000000000000000000
#   CRPIX2:     511.0000000000000000000000
#   CRVAL1:     271.4793106759000238525914
#   CRVAL2:     -30.3369849848139985226680
#    CD1_1:       0.0000075969050041170608
#    CD1_2:       0.0000080216305677613700
#    CD2_1:       0.0000080216305677613700
#    CD2_2:      -0.0000075969050041170608
#
#     HMIN:          5
#     PMAX:      99999.0
#     FMIN:         25.0        25.0
# HISTMODE:          7.8
# HIFLAG  :      64000
# HIFLAG_I:      64000
# LOFLAG_I:        -50
# DOAPPHOT:          F
#      PID:      16067
#     FILT:      F814W
#    EXPTI:         87.0000
#    EXPTE:         87.0000
#     rDAT:       2020.19906807
#  TIMESTR:      '15:50:35'
#  DATESTR:      '2020-03-13'
# APERTURE:      'UVIS2-C1K1C-SUB '
#     GAIN:          0.00
#
#  PSF_INP: /g/lu/code/fortran/hst1pass/LIB/PSFs/STDPSFs/WFC3UV/STDPSF_WFC3UV_F814W.fits
#  PSF_USE: /g/lu/code/fortran/hst1pass/LIB/PSFs/STDPSFs/WFC3UV/STDPSF_WFC3UV_F814W.fits
#   NPERTs:    0
#
#  GDC_INP: /g/lu/code/fortran/hst1pass/LIB/GDCs/STDGDCs/WFC3UV/STDGDC_WFC3UV_F814W.fits
#
#
#================================
# PSF INFO
#
# PSFFILE_USE: /g/lu/code/fortran/hst1pass/LIB/PSFs/STDPSFs/WFC3UV/STDPSF_WFC3UV_F814W.fits
#
#      CENTRAL PIXEL ARRAY
#                           0000    0682    1365    2048    2731    3413    4096
#                             01      02      03      04      05      06      07
#               4096 08   0.1531  0.1594  0.1651  0.1662  0.1672  0.1688  0.1687
#               3413 07   0.1590  0.1618  0.1645  0.1658  0.1668  0.1677  0.1687
#               2731 06   0.1629  0.1645  0.1651  0.1659  0.1677  0.1684  0.1694
#               2049 05   0.1632  0.1655  0.1663  0.1663  0.1686  0.1697  0.1700
#               2048 04   0.1623  0.1666  0.1690  0.1680  0.1692  0.1719  0.1743
#               1365 03   0.1644  0.1668  0.1668  0.1673  0.1716  0.1733  0.1736
#               0682 02   0.1648  0.1656  0.1645  0.1696  0.1791  0.1741  0.1704
#               0000 01   0.1629  0.1640  0.1643  0.1746  0.1842  0.1734  0.1678
#
#
#=================================
# FRAME INFO
#
#      WCSMODE: MAT
#
#  WCSMODE: MAT
#    MFILE: ie8j01xoq_mat.UVuvWw
#    NMATs:   254
#       AB:     1.000013   -0.000007
#       CD:     0.000041    0.999957
#        1:   514.77  628.32
#        2:   522.23  634.30
#       ZP:    -0.01
#
#
#        INST1:        512.00      0.00000760  0.00000802       271.4793107  18:05:55.03
#            2:        511.00      0.00000802 -0.00000760       -30.3369850 -30:20:13.14       39.773
#        -----     ----------     ----------- -----------      ------------ ------------     ---------
#        FRAME         CRPIX         CD_1        CD_2           RADEC(DEG)  RADEC(SEXIG)     (mas/pix)
#        -----     ----------     ----------- -----------      ------------ ------------     ---------
#        DEST1:         -0.00     -0.00000000 -0.00000000        -0.0000000  00:00:00.00        0.000
#            2:         -0.00     -0.00000000 -0.00000000        -0.0000000 -00:00:00.00
#
#
# ARTSTARS:     1
#   ASTYPE:   UVW
#  ARTFILE: ie8j01xoq_art.xymnfo
#
#  MATFILE: ie8j01xoq_mat.UVuvWw
#    NMATs:   254
#       AB:     1.000013   -0.000007
#       CD:     0.000041    0.999957
#        1:   514.77  628.32
#        2:   522.23  634.30
#       ZP:    -0.01
#
#=======================================
# FINDING STATISTICS
#
#  WHY    NPIX      %PIX   EXPLANATION
#  --- --------  -------   -------------
#   1 15657035   93.323%   ..1..not on chip....
#   2   939853    5.602%   ..2..not loc max....
#   3    87709    0.523%   ..3..h < hmax.......
#   4     3322    0.020%   ..4..flux too low...
#   5        0    0.000%   ..5..below mask thr.
#   6        0    0.000%   ..6..out of bounds..
#   7        1    0.000%   ..7..loflag issues..
#   8        0    0.000%   ..8..saturated......
#   9        4    0.000%   ..9..not contig sat.
#  10        0    0.000%   .10..not loc sat max
#  11        0    0.000%   .11..sat weirdness..
#  12     4098    0.024%   .12..pk but not qsel
#  13     1501    0.009%   .13..pk too peaky...
#  14        0    0.000%   .14..satd CR........
#  15     1869    0.011%   .15..good unsat.....
#  16        4    0.000%   .16..good satd......
#
#
#=======================================
# LUMINOSITY FUNCTION EXTRACTED
#
#    MAG   LFe    CUMe      LFe/s CUMe/s
#-------- -----  ------   ------- ------
# LF -18      1      1          0      0
# LF -17      0      1          0      0
# LF -16      0      1          0      0
# LF -15      2      3          0      0
# LF -14     12     15          0      0
# LF -13     13     28          1      1
# LF -12     26     54          0      1
# LF -11    101    155          0      1
# LF -10    232    387          3      4
# LF  -9    320    707         13     17
# LF  -8    430   1137         16     33
# LF  -7    530   1667         28     61
# LF  -6    206   1873        126    187
# LF  -5      0   1873        241    428
# LF  -4      0   1873        356    784
# LF  -3      0   1873        430   1214
# LF  -2      0   1873        518   1732
# LF  -1      0   1873        141   1873
#-------- -----  ------   ------- ------
#
#
#=====================================
# BOUNDARY INFO   INST=8 Ks=2
#
# -----------     ------------- -------------     ------------- -------------     ------------- -------------     ------------- -------------
#     SYS CHP         P1a           P1b               P2a           P2b               P3a           P3b               P4a           P4b
# -----------     ------------- -------------     ------------- -------------     ------------- -------------     ------------- -------------
# BDRY_xy_K1:         1.0000000     2.0000000      1025.0000000     2.0000000      1025.0000000  1025.0000000         1.0000000  1025.0000000
# BDRY_uv_K1:         6.5533200    73.2765900      1024.8520600   134.8837700      1027.9537700  1160.1370600        12.8410400  1095.9083900
# BDRY_rd_K1:       271.4697951   -30.3369643       271.4793309   -30.3292643       271.4888873   -30.3370278       271.4793551   -30.3446831
# BDRY_UV_K1:         6.5533200    73.2765900      1024.8520600   134.8837700      1027.9537700  1160.1370600        12.8410400  1095.9083900
# -----------     ------------- -------------     ------------- -------------     ------------- -------------     ------------- -------------
# BDRY_xy_K2:      4095.0000000  4095.0000000      4095.0000000  4095.0000000      4095.0000000  4095.0000000      4095.0000000  4095.0000000
# BDRY_uv_K2:      4085.5385400  4454.7187200      4085.5385400  4454.7187200      4085.5385400  4454.7187200      4085.5385400  4454.7187200
# BDRY_rd_K2:       271.5464219   -30.3375128       271.5464219   -30.3375128       271.5464219   -30.3375128       271.5464219   -30.3375128
# BDRY_UV_K2:      4085.5385400  4454.7187200      4085.5385400  4454.7187200      4085.5385400  4454.7187200      4085.5385400  4454.7187200
# -----------     ------------- -------------     ------------- -------------     ------------- -------------     ------------- -------------
#
#
#===================================================
#  FILEOUT: ie8j01xoq_flt.uvwXYMpq                                                          
#---------------------------------------------------
# (01)  u -- u ref-frame           c002-c010    F001
# (02)  v -- v ref-frame           c012-c020    F002
# (03)  w -- dist-corr inst mag    c022-c028    F044
# (04)  X -- dist-cor x posn       c030-c038    F008
# (05)  Y -- dist-cor y posn       c040-c048    F009
# (06)  M -- instl mag (1000s)     c050-c056    F003
# (07)  p -- peak pixel value      c058-c068    F018
# (08)  q -- quality of fit        c070-c074    F019
#---------------------------------------------------
#
#  (01)      (02)     (03)     (04)      (05)     (06)      (07)     (08)   
#
#....u.... ....v.... ...w... ....X.... ....Y.... ...M... .....p..... ..q..  
#
  730.0512  121.1215 -12.413  729.1251    6.0304 -12.406    14921.99 0.036
  977.3249  136.2236  -6.868  977.3219    6.1879  -6.859       87.74 0.379
  570.8414  113.0203  -8.416  569.1073    7.5363  -8.411      337.15 0.094
   14.2513   79.5883  -7.541    8.7263    7.8311  -7.541      159.16 0.226
  131.7357   86.6182  -7.224  127.1466    7.7375  -7.223      123.93 0.214
  424.3577  104.4999  -9.446  421.8071    7.8772  -9.441      929.72 0.040
  874.9410  131.7651  -6.986  874.5751    7.9201  -6.977       99.77 0.214
  486.5599  110.3787  -7.680  484.3584    9.9870  -7.675      183.02 0.102
  514.7135  112.3870  -9.546  512.6663   10.2918  -9.541      934.34 0.063
  165.0929   92.4211 -12.678  160.7364   11.5113 -12.676    15473.68 0.032
  698.5699  124.1035  -6.365  697.4428   10.8654  -6.359       54.72 0.412
  817.2844  131.1339  -6.944  816.6953   10.7570  -6.936       81.89 0.458
  904.9274  136.6990  -7.208  904.6617   11.0235  -7.199      126.02 0.177
  368.8023  105.0036  -9.263  365.8817   11.7361  -9.259      825.65 0.088
  402.2676  107.5912  -5.609  399.5580   12.2922  -5.604       29.98 0.467
  179.5115   94.4456  -7.210  175.2568   12.6599  -7.208      115.54 0.243
  157.4016   96.1536  -7.407  152.9624   15.6973  -7.405       97.49 0.378
  196.9922   98.4761 -12.369  192.8504   15.6236 -12.367    12604.29 0.029
  228.4119  100.8984  -6.358  224.4995   16.1367  -6.355       55.66 0.454
  374.2209  109.8499  -7.020  371.3122   16.2388  -7.016      110.89 0.322
  217.3028  103.2413  -8.293  213.2919   19.1451  -8.290      305.66 0.134
  978.0951  149.0162  -6.703  978.0537   18.8722  -6.694       82.02 0.240
 1012.2403  151.2447  -7.243 1012.3002   19.0370  -7.233      114.25 0.224
  460.9395  118.9092 -10.753  458.5434   20.0310 -10.748     2787.14 0.032
  561.0716  124.7240 -11.594  559.2306   19.7844 -11.588     6545.67 0.040
  574.4279  126.1720  -7.379  572.6545   20.4202  -7.373      134.62 0.338
  596.0662  127.4389  -5.774  594.4052   20.3754  -5.768       33.54 0.462
  701.1469  133.4284  -9.702  700.0374   20.0237  -9.696     1232.16 0.048
  918.3464  146.7916  -7.916  918.0977   20.2598  -7.907      242.10 0.132
  961.3503  150.1994  -8.201  961.2469   21.0591  -8.192      257.47 0.155
  982.9503  151.6434  -7.467  982.9165   21.1947  -7.458      125.12 0.277
  494.7327  122.4688  -8.736  492.5216   21.5403  -8.730      377.34 0.092
  933.7387  149.3003  -8.999  933.5389   21.8288  -8.990      543.15 0.074
  761.5444  140.3776  -7.896  760.6848   23.3111  -7.889      221.08 0.127
  817.5124  143.3566  -8.340  816.8796   22.9114  -8.332      331.21 0.089
 1016.6669  155.7311  -6.510 1016.7264   23.2353  -6.501       70.10 0.389
  293.9879  112.2879  -9.294  290.5028   23.5220  -9.291      624.37 0.080
  619.7296  133.5647  -6.746  618.1680   25.0481  -6.740      105.45 0.288
  660.3171  136.2676 -10.119  658.9530   25.2892 -10.113     1751.19 0.051
  211.1583  110.0611  -9.870  207.0613   26.3169  -9.868     1332.04 0.035
  368.2515  119.7507  -8.747  365.2511   26.4684  -8.743      457.63 0.113
  965.7646  155.9390 -10.346  965.6581   26.5054 -10.337     1801.99 0.042
  872.8866  151.1377  -6.475  872.4454   27.3271  -6.467       62.99 0.369
  607.8222  136.2514  -7.729  606.1857   28.4435  -7.723      177.42 0.151
  737.4464  143.1154  -8.304  736.4678   27.4870  -8.297      281.40 0.140
   72.7690  104.2537  -6.487   67.5843   28.8875  -6.486       76.91 0.461
  580.2671  135.2218  -7.490  578.4855   29.0824  -7.484      154.41 0.205
  840.3881  151.5801  -6.618  839.8180   29.7228  -6.610       65.22 0.362
 1003.0096  161.9733  -7.571 1003.0074   30.2686  -7.561      158.90 0.248
  139.0314  110.7205  -9.731  134.3589   31.3336  -9.730     1085.75 0.073
  701.0438  144.6326  -8.617  699.8887   31.1886  -8.610      428.73 0.082
  816.3250  151.7388  -6.762  815.6569   31.3282  -6.754       76.98 0.420
  280.0569  121.2553  -8.665  276.4211   33.3055  -8.662      402.18 0.103
  383.8429  127.2073 -10.481  380.9103   32.9578 -10.477     2478.33 0.036
  399.8679  128.7041  -6.339  397.0354   33.4803  -6.334       66.10 0.434
  646.8837  144.4088  -8.637  645.4172   34.2097  -8.631      411.24 0.079
  862.3103  156.8076  -6.950  861.8076   33.6083  -6.941       82.47 0.296
  955.5566  162.6542  -9.606  955.3922   33.8047  -9.597     1017.45 0.063
  222.4375  120.6135  -7.030  218.3686   36.1555  -7.028      116.70 0.438
  902.8678  161.4604  -6.230  902.5104   35.7943  -6.221       51.68 0.466
   18.9303  108.7250  -7.533   13.2611   36.6133  -7.532      169.60 0.210
  557.1972  142.1145  -6.089  555.2556   37.3430  -6.084       43.56 0.451
  334.4709  128.8798 -10.780  331.1882   37.6127 -10.777     2937.52 0.029
  492.1042  138.7505  -7.595  489.8001   37.9221  -7.590      169.78 0.323
  663.4092  149.6113  -6.908  662.0052   38.3935  -6.901       90.19 0.282
  830.4880  159.5921  -6.659  829.8494   38.2950  -6.651       72.68 0.425
  932.6891  165.9331  -6.339  932.4303   38.4476  -6.330       53.33 0.418
  506.0072  140.3776  -7.410  503.7777   38.7042  -7.404      157.93 0.213
  678.0415  151.3411  -6.348  676.7037   39.2325  -6.341       55.19 0.403
   90.8355  116.9299  -7.556   85.7265   40.4404  -7.555      147.55 0.163
  170.1257  121.2787  -6.895  165.6417   39.9841  -6.893      106.67 0.441
  226.7984  125.2463  -6.821  222.7374   40.5108  -6.819       88.96 0.259
  910.2112  167.4743  -7.198  909.8619   41.3378  -7.189      132.97 0.221
  220.8983  126.6448  -6.913  216.7836   42.2628  -6.911       94.86 0.278
  883.7557  166.2673 -10.186  883.3062   41.7326 -10.178     1753.15 0.045
  785.9119  161.1464 -10.126  785.0803   42.5256 -10.118     1591.47 0.047
  858.4500  166.7305  -6.732  857.8976   43.7192  -6.724       75.38 0.363
  753.8433  161.0976  -8.820  752.8696   44.4079  -8.813      394.43 0.237
  804.8796  164.4976  -7.859  804.1168   44.7207  -7.851      215.44 0.156
 1007.1975  177.7646  -6.100 1007.1594   45.7325  -6.091       36.19 0.463
  959.3113  175.5880  -9.316  959.1183   46.4521  -9.307      755.00 0.048
  586.1821  153.8828  -8.374  584.3503   47.3155  -8.368      307.45 0.087
  390.6148  142.6667  -7.685  387.6492   47.9584  -7.681      177.41 0.217
  132.6410  128.0344  -6.817  127.8138   48.9887  -6.815      102.01 0.412
  855.5182  171.4520  -8.406  854.9377   48.5964  -8.398      335.60 0.101
  905.4578  174.8783  -8.696  905.0650   48.9952  -8.687      465.62 0.099
  978.2539  179.7257  -9.722  978.1146   49.4279  -9.712     1108.22 0.060
  292.1456  138.9220  -8.790  288.5039   50.1877  -8.787      461.88 0.068
  410.8605  146.2823  -8.347  408.0125   50.3370  -8.343      314.52 0.085
  541.9544  154.4233  -5.808  539.8690   50.5279  -5.803       33.40 0.401
   25.7427  123.5297 -10.341   20.0405   50.9712 -10.341     1906.57 0.159
  348.4751  143.4434  -7.622  345.2149   51.2840  -7.619      174.74 0.159
  464.5078  150.4072  -7.356  461.9802   51.2054  -7.351      157.90 0.231
  241.6067  137.8860  -7.252  237.5895   52.2172  -7.250      107.49 0.216
  322.0501  143.1113  -8.382  318.6040   52.5531  -8.379      291.68 0.094
  477.2457  152.3545  -7.467  474.7868   52.3764  -7.462      166.21 0.193
  662.8279  164.6080 -10.269  661.3586   53.3672 -10.263     1691.11 0.037
  718.3523  167.3374  -7.516  717.1891   52.7605  -7.509      154.76 0.152
  801.1519  173.9441  -6.564  800.3384   54.3518  -6.556       67.98 0.277
   76.0571  130.2728 -10.250   70.7408   54.6456 -10.249     1821.12 0.050
  383.3023  149.3700  -8.539  380.2527   55.0835  -8.535      394.67 0.075
  600.9500  162.4731  -6.196  599.1618   54.9811  -6.190       56.07 0.364
  454.4233  154.1694 -10.298  451.8148   55.5646 -10.293     1792.31 0.037
   61.6482  131.2562  -7.878   56.2017   56.4991  -7.878      192.95 0.138
  219.5351  141.1971  -6.566  215.3281   56.8570  -6.564       61.29 0.465
  462.7625  157.3889  -7.831  460.1902   58.2694  -7.826      205.33 0.123
  816.3793  179.4771  -7.217  815.6103   58.9442  -7.209      118.52 0.141
  278.0476  147.4919  -9.471  274.2546   59.5873  -9.469      832.96 0.055
  293.7455  148.5537  -8.307  290.0639   59.6946  -8.304      319.15 0.072
  786.6148  178.5755  -8.972  785.7210   59.8398  -8.965      584.58 0.078
  112.1923  140.0726  -9.624  107.1233   62.2347  -9.623     1134.19 0.066
  379.7770  155.8071  -6.506  376.6704   61.7145  -6.502       55.27 0.343
  551.6905  166.8294  -8.205  549.6049   62.3005  -8.199      257.02 0.126
  845.7483  183.9395  -7.699  845.0846   61.6181  -7.691      171.38 0.151
  858.7310  184.6561  -8.329  858.1169   61.5495  -8.321      326.35 0.147
 1005.7136  194.3261 -10.251 1005.6192   62.3059 -10.241     1748.60 0.054
  211.2751  147.0254  -8.997  206.9702   63.1702  -8.995      655.05 0.061
  411.4826  159.0555  -9.141  408.5743   63.0326  -9.137      652.26 0.076
  145.0953  143.7844  -8.695  140.2774   63.9454  -8.694      448.27 0.075
  358.2125  156.6600  -9.529  354.9519   63.8712  -9.526     1033.32 0.049
   31.0253  137.6651  -5.723   25.2701   64.7487  -5.723       33.36 0.432
  254.0858  151.1891  -8.367  250.0909   64.7268  -8.365      374.04 0.116
  470.8980  164.1951 -10.797  468.3430   64.5612 -10.792     2658.62 0.033
  611.4366  173.1714  -8.097  609.6591   65.0058  -8.091      279.88 0.115
  564.1330  171.0869  -8.795  562.0999   65.7901  -8.789      475.40 0.139
  660.6969  176.8446 -10.208  659.1656   65.6864 -10.202     1789.60 0.041
 1013.5465  198.6877  -7.633 1013.4639   66.1750  -7.623      151.67 0.166
  554.8749  171.6801  -9.061  552.7857   66.9413  -9.056      667.14 0.049
  309.0685  157.4928  -8.910  305.4523   67.6793  -8.907      494.55 0.064
  520.1639  170.9339  -7.319  517.8745   68.2975  -7.314      118.45 0.250
  542.7329  172.2555  -7.989  540.5702   68.2491  -7.984      239.61 0.112
  172.9989  150.8223 -14.114  168.3671   69.2758 -14.112    59563.48 0.026
  451.6031  167.5018 -10.611  448.9116   69.0244 -10.606     2865.72 0.041
   68.9408  145.7637  -6.492   63.4681   70.5327  -6.492       58.40 0.347
  986.0781  203.2242  -7.968  985.8905   72.3475  -7.959      229.92 0.123
  519.0617  176.9481  -8.906  516.7377   74.3576  -8.901      494.79 0.071
   22.6186  147.7915  -9.241   16.7338   75.3676  -9.241      695.02 0.049
  590.2796  181.4776  -8.746  588.3486   74.5618  -8.740      426.48 0.064
  620.1245  183.2954  -7.324  618.3506   74.5674  -7.318      130.50 0.148
  790.2458  193.5264  -8.595  789.3122   74.5109  -8.588      345.43 0.118
   89.5230  152.7100  -7.704   84.1853   76.2162  -7.703      183.20 0.136
  597.9992  183.5708  -6.684  596.1022   76.1804  -6.678       64.99 0.370
  440.2030  174.9129  -8.134  437.4026   77.1022  -8.129      254.84 0.125
  848.0778  199.6005  -8.302  847.3682   77.0723  -8.294      299.90 0.110
  991.7585  208.4895  -6.663  991.5735   77.2465  -6.654       68.12 0.333
  233.0702  162.6818  -7.059  228.8490   77.4628  -7.057       96.51 0.255
  496.6888  179.1220  -6.055  494.2203   77.8782  -6.050       51.58 0.497
  904.2197  203.6230 -11.215  903.7249   77.6882 -11.207     4448.74 0.032
  803.7970  199.1366  -7.866  802.9021   79.2810  -7.859      178.48 0.187
  289.7094  169.0409  -7.840  285.8877   80.3692  -7.837      205.31 0.131
  609.3122  188.5416  -7.488  607.4563   80.4489  -7.482      129.21 0.174
  673.3387  192.9134 -10.996  671.8062   80.9308 -10.990     3961.43 0.066
  145.6717  162.0680  -6.994  140.7511   82.1493  -6.993      104.90 0.253
  791.6806  200.8969 -11.005  790.7259   81.7651 -10.998     3736.12 0.030
  581.0541  189.4789 -10.764  579.0354   83.0931 -10.758     3277.85 0.038
  597.8638  190.7765  -8.150  595.9344   83.3687  -8.144      244.96 0.102
  737.2617  198.5640  -7.626  736.0657   82.7253  -7.619      181.84 0.192
  337.8643  175.1814  -6.314  334.3631   83.5723  -6.311       53.94 0.465
  402.5317  179.0572  -8.993  399.4622   83.5163  -8.989      499.18 0.080
  438.3726  182.0792 -10.410  435.5251   84.3573 -10.406     1887.39 0.038
  933.5780  212.5580  -6.547  933.1681   84.8111  -6.539       75.12 0.350
   61.3060  161.2803  -8.716   55.6709   86.4790  -8.715      400.74 0.111
  203.4870  170.3882  -8.496  198.9878   86.9441  -8.494      411.30 0.099
  330.2586  179.2440  -7.298  326.6813   88.0848  -7.296      135.11 0.195
  739.8187  205.3416  -9.409  738.6085   89.3227  -9.402      855.87 0.074
  687.8679  202.8015  -9.546  686.3694   89.9035  -9.540     1027.34 0.054
  866.0398  213.8518  -8.374  865.3531   90.1805  -8.366      340.31 0.089
  111.5770  168.7670  -9.343  106.3308   90.9002  -9.342      839.22 0.067
  285.2998  180.7612  -8.563  281.3817   92.3253  -8.560      387.02 0.108
  894.0396  217.5486 -10.517  893.4564   92.1697 -10.509     2288.46 0.042
  524.6670  195.5759  -9.836  522.2896   92.5831  -9.831     1182.62 0.030
  754.5188  209.3351  -9.596  753.3625   92.4134  -9.589      750.49 0.250
  914.9682  219.9339  -9.032  914.4612   93.2799  -9.024      551.56 0.085
  985.1646  223.6444  -7.218  984.9090   92.7324  -7.209      107.45 0.229
   61.1207  168.9271  -7.521   55.4368   94.1214  -7.521      148.47 0.164
  226.8140  179.1584  -6.206  222.4515   94.2762  -6.204       48.77 0.424
  365.2179  186.8457  -7.811  361.8505   93.5450  -7.808      163.51 0.319
  623.7647  203.2783  -7.613  621.9247   94.2587  -7.608      199.99 0.178
  434.0252  192.5285 -10.283  431.0978   95.0385 -10.279     2101.10 0.020
  181.4736  178.1528  -8.631  176.7527   96.0246  -8.629      448.06 0.119
  251.5547  181.9151  -7.225  247.3712   95.5242  -7.223       99.88 0.220
  272.8703  184.1073  -9.393  268.8394   96.4169  -9.391      819.17 0.068
  959.0436  226.7585  -6.069  958.6833   97.4116  -6.061       39.36 0.413
  335.9084  189.1137  -8.147  332.3202   97.5846  -8.144      250.98 0.106
  750.6869  215.1576  -7.922  749.4902   98.4451  -7.916      194.97 0.200
  911.1361  224.1327  -6.766  910.5997   97.6926  -6.758       76.65 0.334
  841.1294  221.4090  -9.012  840.3137   99.2103  -9.005      597.71 0.058
  151.9272  180.0046  -7.894  146.9532   99.6645  -7.893      232.84 0.147
  193.6827  183.3388  -6.362  189.0309  100.4573  -6.360       68.02 0.419
  349.4413  192.2081  -9.122  345.9341   99.8495  -9.119      716.31 0.049
  543.2530  203.8862  -6.425  540.9484   99.7398  -6.420       52.85 0.439
  674.3771  213.0463  -9.892  672.7672  100.9280  -9.887     1411.65 0.032
  865.3994  224.7726  -8.214  864.6722  101.0947  -8.206      314.40 0.130
  164.4139  183.8150  -6.082  159.5209  102.7083  -6.081       46.50 0.467
  476.2418  202.7438 -12.756  473.5342  102.6631 -12.752    15867.93 0.022
  589.8077  210.3093  -7.320  587.7467  103.3215  -7.315      124.39 0.196
  959.8933  233.0852  -6.306  959.5157  103.6598  -6.298       51.93 0.466
 1018.3992  237.3762  -9.215 1018.2136  104.3952  -9.206      667.08 0.056
  124.2966  184.0536  -7.171  119.0670  105.3814  -7.170      102.88 0.284
  411.6949  201.5649 -10.004  408.5742  105.4031 -10.000     1285.20 0.032
  969.1515  234.8317  -7.966  968.8026  104.8393  -7.958      248.33 0.120
  109.0091  183.6561  -6.443  103.6515  105.9129  -6.442       58.64 0.448
  760.4765  223.3043  -9.680  759.2946  105.9698  -9.673     1162.16 0.054
  214.2621  192.0751  -8.636  209.7269  107.9228  -8.634      421.82 0.085
  484.2792  208.8403 -10.583  481.5926  108.2534 -10.579     2317.68 0.032
  652.8239  218.8824  -7.013  651.0756  108.0486  -7.007      114.21 0.199
 1011.4080  241.8848  -9.686 1011.1851  109.3067  -9.677     1107.67 0.061
  264.9516  196.9673  -6.669  260.7896  109.7247  -6.667       84.90 0.319
  238.1388  198.0108  -8.885  233.7610  112.3939  -8.883      502.25 0.081
  324.6868  202.4224  -5.541  320.9470  111.5389  -5.538       29.55 0.500
 1015.8186  244.3924  -9.199 1015.6028  111.5366  -9.190      593.29 0.106
  180.3112  195.0497  -6.382  175.4837  112.9519  -6.380       54.98 0.385
  257.2076  199.7791  -8.038  252.9700  112.9997  -8.036      263.16 0.139
  522.1783  215.5052  -7.255  519.6932  112.5982  -7.251      109.03 0.159
   29.9400  187.1812  -8.480   23.8648  114.2338  -8.480      373.35 0.078
  220.8454  198.3525  -9.718  216.3279  113.7851  -9.716     1081.13 0.070
  929.5979  242.0336  -9.855  929.0750  114.4025  -9.847     1261.97 0.031
   82.4909  191.0414  -8.884   76.8589  114.8937  -8.883      553.69 0.075
  202.3202  199.4200  -8.463  197.6468  115.9753  -8.462      375.29 0.119
  748.0502  232.5272  -6.783  746.7738  115.9095  -6.776      104.01 0.378
   63.0056  191.6543  -8.683   57.1981  116.6895  -8.683      444.96 0.093
  282.5285  204.9402  -6.049  278.4588  116.6101  -6.047       44.02 0.491
  100.7478  196.2822  -7.081   95.2430  119.0147  -7.080      104.71 0.278
  572.2571  225.4948  -6.919  570.0267  119.5197  -6.914       74.27 0.288
  593.5498  226.0128  -7.687  591.4410  118.7456  -7.682      184.17 0.139
  603.2781  226.8875  -7.957  601.2213  119.0279  -7.952      217.62 0.142
  555.3603  224.5550 -10.165  553.0339  119.6071 -10.160     1665.21 0.042
  711.4225  234.1651  -7.038  709.9595  119.7565  -7.032      101.57 0.212
  975.1560  250.2494  -5.944  974.7796  119.8288  -5.936       41.07 0.460
  146.9832  200.4624  -7.172  141.8481  120.3768  -7.171       99.00 0.289
  514.9933  222.9988  -5.918  512.4296  120.5041  -5.914       38.38 0.491
  900.1455  247.2134 -12.682  899.4866  121.3427 -12.674    14910.21 0.027
   56.8761  197.3490  -9.443   50.9788  122.7460  -9.443      939.38 0.058
  356.9145  216.1908 -10.066  353.3364  123.3144 -10.063     1415.20 0.037
  653.5549  233.6560  -7.540  651.7487  122.7271  -7.534      145.94 0.183
  871.9060  246.7014  -8.755  871.1301  122.5414  -8.748      439.70 0.077
  547.2738  228.8059  -6.696  544.8794  124.3343  -6.691       80.94 0.272
  444.2244  223.0225  -6.541  441.2127  124.8251  -6.537       50.08 0.415
  942.9219  254.6312  -7.884  942.4094  126.1423  -7.876      201.47 0.131
   25.2811  199.2706  -6.378   19.0933  126.5811  -6.378       55.55 0.418
  154.6848  207.4986  -6.075  149.5731  126.9297  -6.074       42.74 0.462
  249.2770  212.9652 -10.370  244.9045  126.6354 -10.368     2027.28 0.037
  413.9140  223.0939  -8.459  410.7002  126.7377  -8.456      334.40 0.153
  755.2230  243.8019  -6.562  753.9377  126.7094  -6.556       69.69 0.429
  464.2428  227.6988  -6.249  461.3383  128.2719  -6.245       58.81 0.409
  704.0204  242.3362 -11.547  702.4872  128.3470 -11.541     5280.10 0.023
  802.1068  247.7582  -6.336  801.0253  127.8150  -6.329       57.89 0.387
  275.6587  217.2648  -6.695  271.4693  129.3217  -6.693       77.79 0.352
  381.1232  223.5528  -7.120  377.6793  129.1867  -7.117      109.36 0.274
  732.4248  244.2305  -9.340  731.0268  128.5158  -9.334      739.66 0.055
  118.8287  208.4334  -6.695  113.4071  130.0424  -6.695       73.87 0.352
  366.1437  223.0778 -12.300  362.5960  129.6229 -12.298    10631.54 0.025
  256.0376  217.5991  -8.851  251.6930  130.8475  -8.849      535.12 0.073
  868.4425  255.4641 -10.745  867.6214  131.4790 -10.737     2526.14 0.031
  824.0183  253.5259  -7.147  823.0137  132.2354  -7.140      127.67 0.227
   49.8127  207.2230  -6.797   43.7907  133.0319  -6.797       76.70 0.310
  393.4041  228.3718 -10.438  390.0217  133.2471 -10.435     2366.59 0.038
  426.0070  231.9733 -10.011  422.8306  134.8582 -10.008     1529.54 0.045
  564.0527  240.6730  -9.152  561.7054  135.1464  -9.147      662.89 0.063
  664.7396  246.8430  -6.318  662.9390  135.1919  -6.313       70.95 0.458
   28.5997  208.8620  -7.410   22.3816  135.9533  -7.410      131.77 0.245
  201.5475  219.7173  -7.009  196.7527  136.2728  -7.008       93.05 0.296
  704.5202  250.3158 -11.809  702.9576  136.2689 -11.803     8251.73 0.020
  804.8498  255.7535  -7.521  803.7512  135.6145  -7.515      157.92 0.207
  437.7380  234.9283 -10.185  434.6249  137.0920 -10.182     1677.43 0.047
  606.1905  244.8288  -6.562  604.0721  136.7338  -6.557       76.62 0.399
  497.6264  240.0542  -9.154  494.8748  138.5625  -9.150      637.91 0.061
  644.7555  250.3344  -6.707  642.8311  139.8832  -6.702       65.48 0.392
  825.9715  261.0796  -9.327  824.9483  139.6425  -9.320      837.84 0.069
 1003.3190  272.1889  -8.026 1002.9742  139.9713  -8.017      273.68 0.124
   58.0896  215.4414  -8.925   52.0912  140.7322  -8.925      596.98 0.076
  322.0383  231.6281 -10.791  318.1252  140.8316 -10.788     3198.99 0.040
  593.6531  248.1862  -6.399  591.4474  140.8407  -6.394       49.21 0.466
  444.0056  240.5259  -6.742  440.9064  142.2932  -6.738       86.99 0.231
  572.8649  248.2215  -7.420  570.5364  142.1367  -7.415      139.65 0.245
  136.2200  222.5183  -6.565  130.8638  143.0412  -6.565       75.54 0.365
  298.8458  232.0609  -9.961  294.7556  142.6731  -9.959     1340.96 0.062
  982.8304  274.3858 -12.961  982.4051  143.4011 -12.953    18631.79 0.037
   34.4696  217.0748  -7.598   28.2469  143.8008  -7.599      169.76 0.251
  227.3389  228.7953  -7.917  222.7032  143.7622  -7.916      199.38 0.156
  332.3695  236.6589  -6.117  328.5063  145.2222  -6.114       46.28 0.466
  390.3923  240.3511  -7.474  386.9279  145.3783  -7.471      162.53 0.247
  488.4780  246.0460 -10.064  485.6401  145.0930 -10.060     1529.13 0.043
  964.8246  275.1739  -7.172  964.3295  145.2762  -7.164      110.01 0.246
  901.3969  272.2743  -7.621  900.6583  146.2283  -7.614      167.67 0.166
  944.9530  274.3667  -8.179  944.3837  145.6753  -8.171      235.79 0.105
 1007.1076  278.6471  -7.470 1006.7562  146.1731  -7.462      147.18 0.168
  470.0328  247.7757  -6.950  467.0684  147.9398  -6.946       87.69 0.224
  849.0247  270.5422  -7.065  848.0686  147.6740  -7.058       91.97 0.273
  895.5756  273.6256  -8.320  894.8080  147.9269  -8.313      351.52 0.119
  620.5998  258.3461  -8.016  618.5055  149.3339  -8.012      214.37 0.102
  810.5555  269.8236  -7.363  809.4313  149.2873  -7.356      103.38 0.279
   38.2362  223.8087  -8.793   32.0057  150.2944  -8.794      493.53 0.071
  293.5345  238.8766  -9.308  289.3669  149.7956  -9.306      756.91 0.053
  425.7803  246.8354  -8.783  422.5283  149.6946  -8.779      408.15 0.084
  408.1906  246.6288  -6.450  404.8189  150.5581  -6.447       70.12 0.462
  732.5065  267.0060 -11.782  731.0197  151.2073 -11.776     8225.42 0.025
  547.1951  256.7896  -6.837  544.6724  152.2357  -6.833       89.96 0.303
  594.9558  259.0509  -7.388  592.7100  151.5922  -7.383      113.42 0.253
  694.4790  267.5769  -6.556  692.7524  154.0538  -6.551       57.89 0.424
  781.6618  273.0918  -7.756  780.3914  154.2938  -7.750      198.90 0.173
  570.8853  261.2056  -8.706  568.4869  155.2007  -8.702      396.47 0.082
  209.4497  240.1354  -6.522  204.6043  156.1654  -6.521       67.01 0.402
  338.4139  247.4018  -6.768  334.5389  155.5716  -6.766       69.66 0.274
  664.9750  268.0036  -8.248  663.0879  156.2687  -8.243      341.53 0.143
  840.4929  278.6062  -9.106  839.4710  156.2245  -9.100      601.10 0.061
  278.0167  245.6193  -8.662  273.6921  157.4665  -8.660      370.93 0.080
  380.4635  253.5282  -8.281  376.8616  159.1260  -8.278      317.46 0.112
   17.8388  232.3399  -8.347   11.3713  160.0445  -8.347      284.00 0.176
  135.9666  239.4996  -6.059  130.5080  160.0049  -6.059       48.38 0.455
  942.0183  289.3272  -6.212  941.3884  160.7548  -6.204       44.30 0.343
   30.6244  235.5137  -6.994   24.2507  162.4449  -6.994       78.45 0.212
  634.6963  273.0482  -7.184  632.6193  163.1345  -7.180      104.88 0.261
  831.6687  285.3898  -9.605  830.5835  163.5179  -9.598      840.32 0.039
  960.3662  293.6586 -12.188  959.7941  163.9578 -12.180    11878.37 0.033
  268.2904  252.7932  -8.075  263.8501  165.2161  -8.073      258.87 0.136
  692.4322  278.0760  -7.257  690.6524  164.6429  -7.252      113.95 0.182
  706.8469  280.4555  -8.072  705.1756  166.1673  -8.067      263.41 0.125
  168.2562  248.5612  -9.011  163.0198  167.0821  -9.011      628.44 0.074
  190.0238  250.5702  -8.519  184.9582  167.7608  -8.519      375.09 0.112
  338.1012  260.1205  -8.671  334.1575  168.2795  -8.669      449.61 0.110
  385.6439  262.9807  -8.403  382.0307  168.2404  -8.401      351.21 0.104
  160.3987  249.4308  -7.204  155.0907  168.4288  -7.203      115.39 0.256
   48.8106  243.9674  -8.171   42.5511  169.7769  -8.172      253.51 0.083
  951.5401  299.0811  -7.818  950.9160  169.8941  -7.810      185.04 0.289
  985.9547  301.8578  -6.927  985.4537  170.5740  -6.920       67.56 0.300
  370.0243  265.6514  -8.464  366.2854  171.8552  -8.461      377.76 0.105
  742.4468  288.0136  -8.966  740.9280  171.5417  -8.960      528.76 0.051
  126.1057  253.3235  -9.258  120.4800  174.4053  -9.258      603.78 0.040
  772.9673  292.4903 -10.637  771.5822  174.1525 -10.631     2572.86 0.034
  821.9689  294.7292  -6.757  820.8062  173.4120  -6.750       72.32 0.301
  977.2983  305.1247  -7.505  976.7545  174.3533  -7.497      154.19 0.220
   87.3850  251.3909  -6.837   81.4292  174.8369  -6.837       93.43 0.342
   93.8472  251.3486  -6.717   87.9492  174.4006  -6.717       71.87 0.318
  937.2002  304.5872  -6.860  936.5008  176.2481  -6.853       75.45 0.315
  261.5712  264.0359  -7.030  257.0161  176.8448  -7.029      105.59 0.316
  425.8188  274.5258  -9.282  422.4295  177.3128  -9.280      602.28 0.152
  269.7691  265.4079 -10.904  265.2719  177.7150 -10.903     3427.52 0.028
  971.0768  309.7725  -6.601  970.4944  179.3598  -6.593       68.08 0.438
  297.7780  269.6041  -9.352  293.4786  180.1975  -9.350      718.78 0.059
  593.2889  287.0365 -12.648  590.9104  179.5957 -12.643    16358.70 0.018
  213.4153  265.6479 -10.671  208.4590  181.3869 -10.670     2328.14 0.031
  869.3869  304.9175 -10.264  868.3981  180.6892 -10.257     1733.75 0.033
  946.6473  311.4264  -7.996  945.9635  182.4885  -7.988      216.71 0.137
  285.1723  271.1809 -11.496  280.7657  182.5389 -11.495     5373.11 0.026
  171.3931  265.4989  -6.445  166.0856  183.7999  -6.445       62.17 0.337
  500.7593  286.5825  -9.208  497.8078  184.7713  -9.204      723.96 0.054
  793.6195  304.4503  -9.771  792.2888  184.8200  -9.765     1141.48 0.136
  808.8203  305.1463  -6.518  807.5587  184.5913  -6.511       65.22 0.391
  139.0530  265.5581  -8.907  133.4680  185.8315  -8.907      497.51 0.099
  353.5374  278.9611  -6.459  349.6097  186.1392  -6.457       57.84 0.411
  418.7971  283.0927  -7.845  415.3172  186.2873  -7.842      192.13 0.138
 1017.9118  319.1557  -9.604 1017.4742  185.8617  -9.596      896.58 0.088
  244.6283  272.9354  -8.978  239.8876  186.7600  -8.977      613.97 0.079
  978.0807  317.7749  -8.692  977.4999  186.9064  -8.684      418.27 0.091
  945.2238  316.6123  -7.887  944.5174  187.7411  -7.879      201.96 0.142
  288.8663  277.7255  -8.535  284.4534  188.8458  -8.534      381.82 0.114
   35.4710  263.7042  -8.560   28.9672  190.3004  -8.561      423.42 0.087
  134.5797  269.6119  -8.375  128.9321  190.1521  -8.375      353.58 0.130
  908.7465  316.9891  -6.308  907.8876  190.3298  -6.301       54.27 0.426
  104.5433  268.3508  -6.784   98.6389  190.7255  -6.784       80.72 0.281
  678.4494  304.3262  -8.657  676.4882  191.6630  -8.652      382.80 0.088
  145.7349  272.7623  -7.128  140.1657  192.6173  -7.128       93.14 0.470
  139.2551  274.8059  -7.439  133.6178  195.0533  -7.439      131.95 0.353
  269.2992  282.5518 -10.816  264.7047  194.8556 -10.814     3287.24 0.045
  612.0716  303.9341  -9.998  609.7318  195.3060  -9.993     1405.82 0.044
  302.4129  285.5193  -9.045  298.0644  195.7991  -9.043      626.64 0.093
  720.6063  311.4464  -6.018  718.8849  196.2261  -6.013       44.16 0.388
  585.7955  304.1365  -7.198  583.2968  197.1052  -7.194      118.13 0.237
  947.0609  325.5608  -8.165  946.3327  196.5448  -8.157      234.99 0.135
  295.7285  286.9300 -11.186  291.3200  197.6146 -11.185     3301.39 0.278
  324.9758  289.2556  -9.231  320.7807  198.1528  -9.229      753.70 0.043
  342.2769  290.1952  -7.437  338.2072  198.0359  -7.436      137.18 0.175
  804.2041  318.1730  -7.576  802.8729  197.8552  -7.570      171.83 0.167
   89.2889  275.2716  -9.940   83.2067  198.5677  -9.940     1316.23 0.048
  694.0860  312.5407  -7.736  692.1778  198.9036  -7.731      187.89 0.154
  123.6878  279.2823  -6.924  117.8879  200.4732  -6.924       80.84 0.244
  200.2999  282.9880  -8.955  195.1362  199.4983  -8.954      524.56 0.040
  906.2040  326.3277  -7.699  905.3025  199.7893  -7.692      175.27 0.144
  146.3968  280.8346  -6.042  140.7863  200.6374  -6.042       44.53 0.448
  795.1593  320.7249 -10.102  793.7756  200.9480 -10.096     1739.09 0.049
  280.7557  290.9691  -6.314  276.2069  202.5591  -6.313       47.36 0.353
  470.0655  302.5990  -8.765  466.8377  202.6209  -8.762      480.13 0.072
  777.7713  322.1444  -9.305  776.2980  203.4190  -9.299      695.87 0.066
  107.5236  281.7544  -9.909  101.5659  203.9287  -9.910     1270.66 0.121
  609.4179  312.5452  -6.913  607.0253  204.0554  -6.909      107.39 0.325
  494.5836  306.4638  -9.157  491.4985  204.9808  -9.154      627.96 0.058
  529.3904  308.8369  -6.107  526.5170  205.2248  -6.104       47.75 0.492
  865.2153  330.3650  -6.546  864.1185  206.3024  -6.540       59.70 0.328
  961.7584  335.5708  -9.342  961.0569  205.6252  -9.335      760.92 0.119
   69.8492  282.3731  -9.982   63.5479  206.8467  -9.983     1352.93 0.063
  593.7612  314.0544  -7.925  591.2675  206.5129  -7.921      203.24 0.143
  476.8413  308.8233  -6.774  473.6288  208.4172  -6.772       72.50 0.366
  929.1312  336.2382  -7.504  928.2939  208.2720  -7.497      133.78 0.293
  295.4478  298.5924  -6.017  290.9744  209.2724  -6.015       56.40 0.427
  722.9607  324.4714  -6.664  721.2008  209.0688  -6.659       86.38 0.371
  303.4275  299.8754  -8.416  299.0101  210.0663  -8.415      370.59 0.095
  541.0716  314.8310  -7.547  538.2452  210.4931  -7.544      153.83 0.150
  948.9734  340.3079  -6.695  948.2050  211.1215  -6.687       72.27 0.322
  358.3667  305.2344  -6.802  354.3391  212.0636  -6.800       77.31 0.356
   60.6130  288.0184  -8.720   54.1927  213.0490  -8.721      459.14 0.107
   47.5357  287.6883 -11.322   40.9964  213.5181 -11.323     4609.40 0.026
  129.7102  292.7100  -8.401  123.8844  213.5151  -8.402      330.40 0.100
  239.8993  299.6026  -7.118  234.9723  213.6706  -7.117       93.72 0.291
  492.8184  315.6003  -7.784  489.6787  214.2036  -7.781      210.66 0.189
  463.3166  314.8830  -7.242  459.9849  215.2884  -7.240      117.53 0.280
  693.4526  328.0769  -6.231  691.4794  214.4341  -6.226       47.66 0.426
  924.6291  342.7977  -8.444  923.7510  215.0818  -8.437      354.93 0.088
  979.2091  346.4406 -11.744  978.5422  215.3945 -11.737     6373.97 0.025
  998.5834  347.6171  -8.040  997.9871  215.3881  -8.032      207.92 0.205
  154.7969  298.1884  -7.442  149.1584  217.4543  -7.442      139.53 0.187
  771.2532  335.0457  -6.743  769.6992  216.6763  -6.738       72.33 0.429
  842.9173  339.2605  -6.117  841.6891  216.5230  -6.111       42.78 0.473
  534.9485  322.2203  -9.323  532.0487  218.2374  -9.320      822.38 0.046
  653.7663  329.0379  -8.274  651.5649  217.8067  -8.270      268.54 0.101
  270.9745  307.2281  -6.575  266.2590  219.3866  -6.574       79.83 0.492
  199.5457  303.8466 -10.318  194.2575  220.3721 -10.318     1836.82 0.035
  247.1451  306.2721  -9.007  242.2408  219.8871  -9.007      613.89 0.061
  279.1105  308.4378 -10.632  274.4539  220.0976 -10.631     2408.82 0.049
  419.6674  316.8833  -6.159  416.0271  219.9489  -6.157       49.80 0.442
  629.1490  329.2393  -7.991  626.8027  219.5055  -7.987      188.56 0.159
  715.1101  335.2019 -11.821  713.2669  220.2449 -11.817     7924.32 0.023
  792.3961  339.2159  -7.490  790.9304  219.5486  -7.484      150.49 0.206
  566.9698  326.5379 -10.098  564.2550  220.5953 -10.094     1504.79 0.042
  896.0816  346.5857  -9.017  895.0668  220.5923  -9.010      564.75 0.072
   21.0587  294.8768  -6.461   14.2275  222.3039  -6.463       55.24 0.313
  781.8403  341.0512  -6.034  780.3161  222.0199  -6.028       43.03 0.496
   53.0289  297.4254  -8.639   46.4811  222.9083  -8.641      404.47 0.105
   25.9520  296.8374  -6.655   19.1551  223.9638  -6.656       74.70 0.351
  721.8363  339.0742  -9.162  720.0135  223.6969  -9.157      721.53 0.083
  757.2648  341.1097  -7.851  755.6175  223.5723  -7.846      195.62 0.115
  204.8116  308.8746 -11.056  199.5397  225.0714 -11.056     3598.93 0.044
   12.7616  297.9432  -7.511    5.8316  225.8736  -7.512      137.12 0.243
  338.2620  318.5330  -8.238  334.0141  226.5635  -8.237      286.74 0.095
  436.7943  324.7273  -8.909  433.2345  226.7304  -8.906      505.32 0.098
   77.2619  303.4503  -6.123   70.9010  227.4457  -6.124       45.72 0.465
  616.3119  337.2564  -6.365  613.8547  228.2835  -6.361       56.41 0.301
  190.1142  311.9553  -7.120  184.7001  229.0457  -7.120      107.93 0.265
  773.8788  347.2542  -9.921  772.2919  228.6882  -9.916     1342.67 0.055
  142.0351  309.7493  -7.138  136.2180  229.7796  -7.139      104.51 0.241
  420.1274  326.6879  -8.524  416.4420  229.7047  -8.522      283.73 0.273
  553.2598  334.7747  -7.938  550.4208  229.6473  -7.935      186.65 0.182
  673.1294  342.6991  -6.035  670.9833  230.2532  -6.031       37.36 0.494
  654.7282  342.3550  -8.240  652.4774  231.0303  -8.236      271.40 0.106
  754.3035  349.0770  -6.914  752.6108  231.6961  -6.909       82.13 0.280
  521.9092  335.4037  -7.744  518.8652  232.1859  -7.741      215.61 0.171
  580.5965  339.1272  -7.036  577.9114  232.3246  -7.033       99.30 0.229
  979.6186  363.0918  -7.521  978.9009  231.9596  -7.514      147.48 0.163
  465.7502  333.2285  -6.372  462.3468  233.4450  -6.369       47.72 0.345
  176.2534  317.1284  -8.661  170.6911  235.0587  -8.661      410.07 0.098
  184.0042  317.4713  -8.939  178.5066  234.9276  -8.939      508.74 0.098
  382.7621  329.4359  -7.875  378.7916  234.7284  -7.873      205.08 0.138
  657.6378  348.4961  -8.086  655.3787  236.9784  -8.082      239.40 0.123
   27.2200  312.6136  -8.484   20.3364  239.6461  -8.486      316.27 0.114
  405.7256  335.7895  -6.672  401.8914  239.6671  -6.670       74.43 0.366
  779.4078  358.9309  -8.259  777.8045  239.9939  -8.253      305.35 0.107
   91.4519  317.6030  -8.008   85.1355  240.7153  -8.009      256.69 0.155
  122.9483  319.4063  -8.867  116.9054  240.5913  -8.868      516.16 0.053
  520.1608  343.6781  -6.960  517.0671  240.5486  -6.957       98.30 0.244
  929.4770  369.5396  -9.326  928.5308  241.4365  -9.320      619.45 0.076
  571.0266  347.6702  -8.295  568.2432  241.4304  -8.292      265.14 0.119
   34.0550  316.6375  -7.685   27.2114  243.2599  -7.687      181.34 0.155
  157.2046  324.3748  -6.638  151.4354  243.4602  -6.639       55.37 0.331
  277.4075  332.4739  -7.648  272.6067  244.1987  -7.648      159.70 0.158
  331.6458  335.3286  -7.976  327.2592  243.7331  -7.975      217.99 0.158
  578.7076  350.8683  -8.401  575.9586  244.1530  -8.398      352.06 0.135
  679.8788  356.6867  -8.814  677.7149  243.7933  -8.810      478.73 0.101
  343.4085  337.4548  -7.090  339.1011  245.1367  -7.089      100.83 0.321
  915.9002  371.8019 -10.737  914.8873  244.5180 -10.731     4257.25 0.496
  661.7616  358.0653  -6.893  659.4873  246.2720  -6.889       79.88 0.234
  772.1581  364.6106 -11.346  770.4971  246.0982 -11.341     4657.72 0.023
  963.9161  376.0784  -8.385  963.0936  245.8558  -8.378      361.20 0.107
  994.9587  378.3859  -9.889  994.2530  246.2647  -9.882     1273.95 0.051
   65.1925  322.7609  -8.052   58.6033  247.4732  -8.054      223.65 0.126
  530.6208  350.7144 -11.099  527.5617  246.9306 -11.096     3749.35 0.091
  876.6532  371.8294  -9.314  875.4630  246.9362  -9.308      754.41 0.076
  386.1882  342.9886  -8.313  382.1745  248.0460  -8.311      337.26 0.105
 1005.7927  381.0401  -6.693 1005.1204  248.2496  -6.686       61.89 0.417
  250.2098  335.5741  -6.909  245.1693  248.9577  -6.909      106.02 0.317
  705.6013  362.7951  -6.859  703.5986  248.3392  -6.854       72.70 0.280
  714.8364  363.5770  -6.372  712.8806  248.5567  -6.368       51.06 0.481
   57.4043  325.2325  -7.243   50.7274  250.4186  -7.244      117.82 0.235
  457.0314  349.8146  -6.269  453.4889  250.5291  -6.267       46.87 0.460
   21.4358  324.8449  -9.166   14.4201  252.2192  -9.168      626.98 0.061
  157.5599  333.3469  -9.058  151.7419  252.4000  -9.058      532.66 0.070
  664.9179  364.2907  -7.045  662.6367  252.2895  -7.041       91.08 0.289
  777.9073  371.2973  -9.813  776.2502  252.4158  -9.808     1156.45 0.043
  679.2441  366.0327  -6.939  677.0389  253.1541  -6.935       97.29 0.204
  364.2718  347.6357 -10.049  360.0705  254.0242 -10.048     1688.81 0.041
   74.9898  331.4707  -6.187   68.4386  255.5752  -6.188       41.20 0.446
  639.6147  365.8037  -8.098  637.1771  255.3409  -8.094      252.32 0.102
 1005.6903  388.9267  -6.119 1004.9933  256.1143  -6.112       42.41 0.464
  181.9895  339.7736  -8.460  176.3472  257.3256  -8.461      325.45 0.094
  688.8272  370.1032  -8.381  686.6609  256.6302  -8.377      311.34 0.103
  878.2984  382.2778  -7.503  877.0793  257.2517  -7.497      160.05 0.168
  256.6188  344.6364  -7.023  251.5815  257.6151  -7.022      104.82 0.299
  600.9885  366.0580 -12.157  598.3131  257.9495 -12.154    11077.73 0.015
  701.0196  372.7090  -7.427  698.9507  258.5047  -7.423      143.60 0.200
  902.1924  385.8523  -6.502  901.0708  259.3582  -6.496       54.37 0.428
  992.5417  390.9447  -7.265  991.7875  258.9264  -7.258      131.07 0.293
   61.7281  335.1076 -11.103   55.0315  260.0198 -11.104     4533.85 0.026
  567.2163  365.6227  -6.556  564.3282  259.5745  -6.553       68.75 0.318
  921.9522  387.8237  -7.807  920.9123  260.1184  -7.800      204.80 0.110
  736.3549  378.7908  -6.452  734.4548  262.4188  -6.447       52.37 0.482
  784.1605  381.9812  -6.955  782.4948  262.6886  -6.950       80.84 0.260
  489.9241  366.1286  -6.182  486.5264  264.7996  -6.179       49.63 0.483
  201.9338  349.7326  -8.454  196.4066  266.0531  -8.454      308.57 0.116
  941.9212  396.0058  -6.464  940.9414  267.0563  -6.458       63.06 0.442
  956.0369  397.2895  -6.209  955.1133  267.4749  -6.202       48.43 0.378
  291.8393  356.7841  -8.071  287.0240  267.5893  -8.070      281.61 0.149
  149.6823  349.7438  -9.220  143.6998  269.2608  -9.221      693.53 0.055
  238.0100  354.9428  -7.813  232.7607  269.0472  -7.813      193.59 0.142
  507.5972  371.0091  -8.704  504.2941  268.5898  -8.701      450.98 0.091
  140.7504  349.7402  -8.026  134.6885  269.8037  -8.026      241.69 0.104
  192.7686  352.8339  -9.692  187.1449  269.7119  -9.693      995.18 0.184
  554.9295  374.9116  -9.377  551.9197  269.5929  -9.374      771.81 0.070
  934.3971  398.9077  -9.837  933.3751  270.4077  -9.831     1120.06 0.041
  523.3696  374.7631  -8.762  520.1525  271.3717  -8.759      433.04 0.074
  360.4905  365.1933  -8.600  356.1702  271.7831  -8.598      403.91 0.067
  799.1089  391.8885  -8.329  797.4808  271.6574  -8.324      278.83 0.095
  888.4120  397.2783  -7.757  887.1880  271.5892  -7.751      179.29 0.185
  973.4278  402.6848 -10.645  972.5599  271.7914 -10.639     2523.55 0.032
  418.2321  369.5042  -7.420  414.3219  272.5529  -7.418      131.21 0.224
  988.5949  404.8797  -8.115  987.7817  273.0540  -8.108      292.54 0.115
  108.6434  351.8494  -6.362  102.2794  273.8754  -6.364       50.41 0.452
  651.1363  384.9545  -8.601  648.6884  273.7437  -8.597      393.20 0.085
  740.9764  390.1685  -6.816  739.0569  273.4846  -6.811       80.82 0.304
   28.0225  347.9769  -8.090   20.9252  274.9289  -8.092      271.74 0.136
  694.7787  390.2370  -6.616  692.5666  276.3514  -6.612       56.14 0.330
   53.1485  351.7653  -7.349   46.2697  277.1880  -7.351      125.10 0.240
   63.1791  352.6211  -8.400   56.3897  277.4291  -8.402      281.08 0.116
  537.3444  382.1072  -7.171  534.1851  277.8470  -7.168      140.68 0.268
  815.6516  398.9179  -9.677  814.0790  277.6591  -9.672     1134.53 0.041
  903.6381  405.0238  -7.104  902.4579  278.3816  -7.098       84.21 0.200
   91.7068  356.7750  -6.829   85.1581  279.8332  -6.831       86.18 0.248
  719.2501  395.0630  -7.533  717.1950  279.6908  -7.529      162.63 0.146
   82.5193  357.0821  -8.142   75.8836  280.7024  -8.144      283.33 0.099
  302.0309  370.9183  -6.442  297.2221  281.0789  -6.441       56.45 0.326
  689.3717  395.0107  -7.844  687.1093  281.4434  -7.841      194.73 0.127
  268.2242  369.6540  -8.484  263.1460  281.8883  -8.484      385.64 0.097
  346.7947  374.7835 -10.112  342.3193  282.1965 -10.111     1622.75 0.055
  156.2643  364.6518  -6.422  150.2537  283.7512  -6.423       56.44 0.405
  772.7748  402.1501  -8.452  770.9756  283.4960  -8.447      312.49 0.164
  794.5583  403.9573  -7.051  792.8629  283.9703  -7.046      111.76 0.304
  397.2975  381.3069  -7.862  393.1737  285.6164  -7.861      202.20 0.137
  562.7298  391.5944 -10.201  559.6962  285.7650 -10.199     1893.29 0.477
  892.8351  411.6268  -5.897  891.5824  285.6244  -5.891       34.87 0.404
   40.1989  360.9636  -7.735   33.1406  287.1723  -7.737      200.86 0.172
  102.0293  364.2973 -10.585   95.5308  286.7172 -10.586     2244.28 0.041
  924.2750  415.6654  -8.266  923.1526  287.7306  -8.260      342.09 0.116
  241.9084  375.5685  -8.472  236.5779  289.4089  -8.472      296.56 0.228
  229.8149  376.1707  -8.726  224.3786  290.7520  -8.727      433.86 0.077
  485.8490  391.9100 -10.191  482.3019  290.7808 -10.189     1741.84 0.036
  570.0279  397.4093  -8.204  567.0165  291.1223  -8.201      297.67 0.109
  113.1706  370.4879  -7.372  106.7377  292.2202  -7.374      147.10 0.156
  219.4931  377.1272  -6.371  213.9632  292.3405  -6.371       59.11 0.394
  373.5869  386.3032  -6.806  369.2583  292.0573  -6.805       68.43 0.389
  504.4138  394.1427  -6.305  500.9815  291.8733  -6.302       56.21 0.465
  105.3422  370.3822 -10.456   98.8381  292.5940 -10.458     1976.57 0.137
  842.4034  415.7522  -7.555  840.8989  292.8156  -7.550      155.90 0.214
  854.9695  416.4379  -6.185  853.5221  292.7331  -6.180       45.18 0.408
  464.9856  393.3298  -7.798  461.2885  293.4750  -7.797      176.44 0.144
  493.0246  395.8907 -10.663  489.5074  294.3152 -10.661     2364.73 0.034
  979.0272  424.8579  -7.753  978.1120  293.5504  -7.747      196.07 0.146
 1007.0514  426.7216  -7.948 1006.2430  293.6978  -7.941      211.19 0.097
  173.0851  376.5615  -7.517  167.1550  294.6194  -7.518      179.70 0.190
  639.0938  405.7228  -6.371  636.4859  295.1993  -6.368       50.74 0.386
  930.9702  423.4636  -8.986  929.8519  295.0961  -8.980      591.55 0.112
  287.9944  386.8881 -10.287  282.9858  297.8879 -10.287     2014.07 0.037
  459.9088  397.2159  -6.518  456.1575  297.6651  -6.516       52.01 0.366
  784.5553  417.5283  -8.244  782.7579  298.1155  -8.239      303.11 0.122
  533.9292  403.0978 -10.510  530.6517  299.0056 -10.507     2386.03 0.032
  644.3476  409.4580  -6.825  641.7563  298.6050  -6.822       86.36 0.408
  863.4310  424.0292  -7.279  861.9968  299.7868  -7.274      126.41 0.213
  835.6261  424.0732 -11.745  834.0594  301.5270 -11.740     6836.98 0.020
  175.6753  385.5266  -7.270  169.7170  303.4171  -7.271      114.94 0.233
  426.4891  400.9274  -7.554  422.4824  303.4167  -7.552      133.97 0.189
  797.6570  422.6778  -7.851  795.9072  302.4521  -7.846      185.94 0.136
  906.5870  429.8715  -6.100  905.3365  302.9751  -6.094       42.90 0.377
  312.5543  394.6772  -6.978  307.7038  304.1605  -6.978       85.46 0.159
  396.8912  399.9410  -7.905  392.6697  304.2459  -7.904      224.08 0.111
  327.0009  396.0498 -10.079  322.2585  304.6453 -10.079     1564.40 0.049
  441.7948  405.5739  -7.148  437.8749  307.1184  -7.147      119.75 0.330
  746.3003  423.9321  -6.477  744.2767  306.8384  -6.473       63.20 0.408
  827.4765  428.6713  -7.629  825.8535  306.6100  -7.624      131.60 0.379
  528.3209  411.4385  -9.976  524.9685  307.6744  -9.974     1472.87 0.044
   78.4311  385.4350  -7.000   71.5866  309.2845  -7.002       72.00 0.304
  336.3463  400.7889  -7.162  331.6530  308.8050  -7.161      113.46 0.210
  560.4551  414.4540  -9.493  557.3052  308.7186  -9.490      886.78 0.053
  739.2633  426.1452  -7.262  737.1928  309.4758  -7.258      127.51 0.260
   23.8020  383.2420  -6.797   16.4487  310.4335  -6.799       74.64 0.244
  589.0998  418.8683  -6.996  586.1191  311.3723  -6.993       97.43 0.279
  674.0012  423.4675  -9.525  671.5320  310.7702  -9.522      848.60 0.051
  775.1186  431.3223  -6.508  773.2197  312.4507  -6.503       55.91 0.442
  852.7037  435.5783  -8.035  851.1785  311.9585  -8.030      307.93 0.172
  278.8727  401.0301  -9.779  273.7127  312.5724  -9.779     1078.76 0.053
  426.8868  410.2198  -6.219  422.8366  312.6701  -6.218       55.64 0.444
  522.7629  416.4166  -7.952  519.3510  312.9840  -7.949      236.19 0.137
  958.0600  442.7125 -10.479  956.9977  312.6317 -10.473     2343.93 0.041
  181.8399  396.2514  -8.813  175.8752  313.7543  -8.814      437.15 0.237
  439.2816  412.0507  -8.917  435.3117  313.7388  -8.916      542.28 0.072
  763.0207  432.0644 -10.371  761.0549  313.9299 -10.367     2287.52 0.036
  257.7518  402.5928  -9.526  252.4069  315.4300  -9.527      799.16 0.069
  509.1746  417.7710  -7.491  505.6650  315.1683  -7.489      144.13 0.218
  592.0590  422.5781  -7.233  589.0814  314.8938  -7.230      129.68 0.158
  820.3515  436.7863  -9.804  818.6638  315.1386  -9.799     1211.21 0.036
  833.0212  437.4715  -9.042  831.3938  315.0484  -9.037      585.06 0.065
   38.1778  389.5600  -6.460   30.9241  315.8753  -6.462       77.01 0.411
  868.2065  440.8155  -7.180  866.7368  316.2350  -7.175      106.74 0.261
  152.1248  398.4864 -13.364  145.8823  317.8088 -13.365    34537.55 0.027
  197.5048  402.0562  -8.587  191.6451  318.5938  -8.588      366.77 0.082
  533.4992  426.5078  -8.632  530.1132  322.4001  -8.630      405.25 0.086
   27.4479  396.2675  -7.323   20.0517  323.2309  -7.326      124.91 0.217
  626.5809  433.1914  -8.842  623.7790  323.3733  -8.839      481.34 0.063
  353.3843  417.8054  -7.111  348.7363  324.7538  -7.111      108.13 0.179
  423.1470  422.4098  -8.066  419.0086  325.0708  -8.065      236.42 0.159
  747.0397  442.0916  -6.803  744.9484  324.9098  -6.799       84.33 0.334
  763.6549  444.2502  -6.641  761.6452  326.0479  -6.637       67.02 0.338
  895.2777  451.8092 -10.662  893.9004  325.5424 -10.657     2498.51 0.057
  928.8344  453.9201  -9.304  927.6055  325.5944  -9.299      639.03 0.061
  476.7609  427.7423  -6.318  472.9810  327.1092  -6.316       44.68 0.392
  874.4562  451.8797  -5.837  872.9789  326.8869  -5.832       38.95 0.492
   42.2230  402.1300 -10.122   34.9311  328.1910 -10.125     1816.36 0.066
  726.9952  444.2509 -10.065  724.7842  328.2896 -10.062     1538.99 0.032
  809.8779  449.0076  -6.390  808.0925  327.9687  -6.385       48.95 0.470
  442.6056  427.5109 -11.025  438.5835  328.9716 -11.023     3593.42 0.028
  456.3695  428.1395  -9.515  452.4433  328.7556  -9.513      838.71 0.052
  756.0373  447.0215  -9.358  753.9756  329.2784  -9.354      824.86 0.056
  233.4914  415.2263  -7.942  227.8709  329.5408  -7.943      205.60 0.145
  527.1431  435.4511 -10.459  523.6740  331.7179 -10.457     2242.14 0.037
  651.3294  442.9827  -6.491  648.6413  331.6293  -6.488       48.65 0.380
   24.9771  405.5251  -8.484   17.5008  332.6376  -8.486      326.77 0.102
  545.9951  439.2944  -7.691  542.6371  334.3996  -7.689      157.64 0.166
  866.7786  458.9352  -6.276  865.2397  334.3933  -6.270       50.56 0.417
   29.1401  409.1510  -6.924   21.6829  336.0069  -6.927      102.75 0.374
  693.2473  450.0241 -10.009  690.7853  336.0888 -10.005     1604.76 0.031
  810.2889  456.9217  -8.372  808.4765  335.8382  -8.367      310.94 0.114
  966.1785  467.1675  -7.145  965.0719  336.5191  -7.139      101.65 0.246
  289.3757  426.0919  -8.686  284.1678  336.9615  -8.686      468.06 0.074
  747.3509  454.3866  -6.087  745.2126  337.1579  -6.083       41.37 0.442
  206.9850  423.0965  -7.749  201.0907  339.0334  -7.750      180.70 0.173
  342.5182  432.0181 -11.346  337.7103  339.6162 -11.346     4690.14 0.029
  540.3142  444.3732  -6.613  536.8946  339.8181  -6.611       76.79 0.296
  664.6102  452.9545  -6.918  661.9628  340.7668  -6.915      104.00 0.223
  727.6950  457.2039  -8.793  725.4357  341.1715  -8.790      430.90 0.061
  979.2128  473.6679  -9.083  978.1414  342.2032  -9.077      668.48 0.064
  530.8683  446.8334  -7.874  527.3728  342.8534  -7.872      184.72 0.166
  703.7289  459.3859  -8.047  701.3232  344.8155  -8.044      245.20 0.120
  126.4309  424.9606  -7.324  119.7999  345.8413  -7.326      127.24 0.204
  649.1788  459.8374  -7.734  646.4070  348.5811  -7.731      163.69 0.150
  121.3003  428.4848  -8.752  114.6011  349.6786  -8.754      426.65 0.073
  147.3381  430.6475  -6.122  140.8665  350.2413  -6.123       46.40 0.442
  157.3796  431.2479  -6.122  150.9961  350.2248  -6.123       55.59 0.492
  494.3154  451.6539  -8.425  490.5457  349.9081  -8.424      326.15 0.094
  769.9336  468.8019  -7.984  767.8629  350.1594  -7.980      258.13 0.120
  929.1922  479.5441  -6.323  927.8800  351.1260  -6.318       66.61 0.457
  446.1298  450.8850  -7.515  442.0185  352.0962  -7.514      159.83 0.171
  186.7254  435.8598  -7.233  180.5802  353.0318  -7.234       96.11 0.230
  364.6882  447.0017  -7.684  359.9776  353.2203  -7.684      179.98 0.194
  456.9781  452.6747  -8.012  452.9372  353.2180  -8.011      247.22 0.090
  101.9782  431.1891  -6.903   95.0820  353.5683  -6.906       84.62 0.261
   30.9027  428.0095  -6.951   23.3463  354.7546  -6.954       82.84 0.229
  108.4359  432.6389  -7.051  101.5918  354.6207  -7.053      105.09 0.336
  887.2326  480.5852  -5.908  885.7192  354.7348  -5.903       39.26 0.427
  375.7905  450.1077 -11.379  371.1508  355.6403 -11.379     4578.92 0.186
  823.7794  478.3230  -9.192  821.9581  356.3629  -9.188      673.55 0.065
  906.2420  482.5786  -6.641  904.8129  355.5583  -6.636       72.98 0.432
   83.5728  433.8743  -9.887   76.4859  357.3830  -9.889     1151.78 0.063
  684.8319  470.3615  -9.620  682.2368  356.8981  -9.617     1124.60 0.057
  714.8937  472.0955  -8.379  712.5005  356.8158  -8.375      305.41 0.077
  237.4146  444.3677  -7.395  231.6674  358.4160  -7.396      117.59 0.251
  359.0696  451.7300  -7.447  354.2902  358.2886  -7.447      147.59 0.164
  510.2586  460.2676  -9.472  506.5603  357.5313  -9.471      719.71 0.062
  518.1006  464.1934  -9.423  514.4387  360.9702  -9.422      820.89 0.063
  538.6760  465.7206 -10.747  535.1492  361.2326 -10.746     3007.71 0.033
  676.4292  473.8769 -11.341  673.7683  360.9215 -11.339     5264.56 0.018
  810.6045  481.7383  -7.013  808.7023  360.5768  -7.009       85.23 0.221
  156.4501  443.1384  -8.363  149.9898  362.1654  -8.365      318.34 0.154
  439.2210  460.0656  -6.301  435.0138  361.6886  -6.301       53.20 0.382
   49.8640  437.4398  -7.640   42.4299  363.0190  -7.643      151.81 0.137
  580.5402  470.3858  -6.076  577.2784  363.3206  -6.074       32.70 0.357
 1009.0959  495.8789  -6.382 1008.0818  362.5213  -6.376       57.98 0.476
  692.4823  478.0102  -9.653  689.9025  364.0616  -9.650     1072.73 0.054
  133.8057  444.3601  -8.013  127.1298  364.7779  -8.015      199.47 0.289
  990.3992  497.3611 -10.503  989.3005  365.1451 -10.497     2315.06 0.028
   43.0266  439.7181  -7.548   35.5116  365.7170  -7.550      136.33 0.194
   66.5441  441.1803  -9.495   59.2494  365.7331  -9.498      882.50 0.058
  143.7808  446.0336  -7.675  137.1875  365.8376  -7.677      195.62 0.184
  416.6571  462.7549  -6.866  412.2676  365.7602  -6.866       89.41 0.328
  499.3577  468.2416  -5.824  495.5461  366.1628  -5.823       33.82 0.409
  708.1114  480.9918  -7.772  705.6422  366.1101  -7.768      166.95 0.191
  276.9765  454.7847  -7.081  271.5104  366.3900  -7.082       80.77 0.303
  357.0292  460.2068  -8.879  352.1897  366.8818  -8.879      558.38 0.046
  765.9073  485.2882  -9.419  763.7507  366.8565  -9.415      869.48 0.056
 1019.6482  500.7519  -6.748 1018.6635  366.7340  -6.742       64.83 0.258
  156.3488  448.9586 -10.022  149.8542  367.9888 -10.024     1621.00 0.039
  911.7596  495.2245  -8.034  910.3140  367.8337  -8.029      215.15 0.160
  897.7893  495.4940 -12.232  896.2763  368.9589 -12.227    12088.53 0.012
  213.2916  454.7880  -7.676  207.2761  370.3138  -7.677      155.77 0.140
  246.4183  456.6190  -8.699  240.6816  370.1039  -8.700      416.06 0.148
  301.8527  460.3126  -6.251  296.5651  370.3820  -6.251       41.28 0.489
  348.4895  463.1013  -8.856  343.5669  370.2986  -8.856      472.44 0.071
  134.5035  450.9818  -7.715  127.7955  371.3536  -7.717      177.72 0.166
  832.9671  493.5791  -9.103  831.1382  371.0208  -9.099      682.96 0.059
  491.9983  473.8831  -7.215  488.1080  372.2484  -7.213       96.44 0.323
  531.3337  476.5783 -10.688  527.7070  372.5253 -10.686     2540.01 0.040
  685.5666  485.9217  -7.572  682.9127  372.3815  -7.569      133.17 0.202
  734.5004  489.6953  -7.103  732.1492  373.1791  -7.100       97.55 0.308
  937.4426  501.7794  -8.683  936.0947  372.7975  -8.678      416.98 0.173
  932.0180  502.2230  -9.821  930.6437  373.5725  -9.816     1086.96 0.054
  611.8142  484.3414 -13.782  608.6995  375.3327 -13.779    45681.47 0.020
  414.8547  472.4813  -7.867  410.4026  375.5858  -7.867      192.92 0.155
  256.4762  464.0571  -9.634  250.7853  376.9173  -9.635     1159.46 0.049
  842.3177  500.7177  -6.586  840.5114  377.5701  -6.581       66.58 0.485
  918.5408  506.1258  -9.645  917.0908  378.2919  -9.639     1108.40 0.055
  473.0634  479.3054  -8.400  469.0111  378.8263  -8.399      378.39 0.098
  314.6553  470.8786  -6.591  309.4173  380.1508  -6.592       58.96 0.438
  789.4025  500.2551  -9.247  787.3178  380.3519  -9.243      665.58 0.047
   91.9823  457.7565  -9.822   84.8328  380.7405  -9.825     1279.42 0.043
   76.7163  458.3041  -7.255   69.4166  382.2270  -7.258      100.12 0.227
  893.7920  507.8861  -6.642  892.2178  381.5658  -6.637       68.33 0.368
  925.3673  511.2621  -6.986  923.9322  382.9967  -6.981      108.10 0.361
  970.8340  513.7731  -6.447  969.5970  382.7129  -6.441       62.07 0.414
   27.6899  456.4852  -8.911   19.9331  383.4258  -8.914      491.99 0.088
  483.8714  486.2058  -7.874  479.8647  385.0543  -7.873      236.17 0.167
   95.5843  463.4017  -9.653   88.4357  386.1627  -9.656     1328.46 0.497
  631.9717  497.7588  -9.505  628.9313  387.4888  -9.503      819.22 0.057
  856.8663  512.2468  -6.715  855.0938  388.1811  -6.710       82.29 0.275
  972.0317  518.8158  -6.126  970.7838  387.6693  -6.121       37.23 0.489
  377.4806  483.5082  -9.513  372.6827  388.9012  -9.513      959.60 0.059
  864.2523  514.2215  -9.439  862.5104  389.6985  -9.435      757.18 0.072
  280.0420  479.5901  -8.404  274.4679  390.9876  -8.405      311.31 0.105
  565.6737  497.6189  -8.000  562.1914  391.4253  -7.999      236.90 0.191
  961.4478  522.9687 -10.161  960.1393  392.4610 -10.156     1543.01 0.029
  202.6989  477.3334  -7.021  196.4636  393.4993  -7.022       84.73 0.286
  727.2632  510.0234 -10.324  724.7881  393.9125 -10.321     2050.33 0.039
   21.5613  468.1499  -8.655   13.6727  395.4690  -8.658      378.05 0.112
  697.3540  513.2123  -7.603  694.6617  398.8952  -7.600      152.65 0.151
  802.2102  519.8367  -6.428  800.1221  399.1073  -6.424       45.46 0.481
   38.1600  474.0174  -6.326   30.3860  400.3119  -6.329       48.72 0.370
  312.8769  490.2268  -8.169  307.5217  399.5932  -8.170      214.71 0.133
  513.0173  503.3772  -6.438  509.1399  400.4141  -6.437       60.82 0.414
  883.2584  525.4093  -7.282  881.5731  399.6944  -7.277      101.58 0.254
   86.7283  478.2311  -8.819   79.4059  401.5348  -8.822      418.79 0.083
  890.0674  527.8606  -9.405  888.4070  401.7222  -9.400      759.41 0.052
  466.4111  503.3873  -7.283  462.1947  403.2887  -7.282      119.60 0.198
  639.7734  513.5048  -7.583  636.7169  402.7294  -7.581      138.83 0.157
  978.1295  534.1766 -10.570  976.8593  402.6173 -10.565     2244.35 0.129
  726.7618  519.5431  -7.946  724.2462  403.4458  -7.943      190.23 0.256
   97.0180  482.3534 -10.526   89.7703  405.0234 -10.528     2587.42 0.043
  355.4210  498.5595 -13.851  350.3702  405.2980 -13.851    46474.64 0.019
  449.1404  504.2779  -6.869  444.7909  405.2401  -6.869       68.06 0.444
  470.9642  504.7827  -7.143  466.7749  404.4027  -7.142       90.89 0.330
  705.2021  520.0750  -6.607  702.5558  405.3006  -6.604       74.12 0.462
   35.2199  479.8203  -6.331   27.3810  406.2970  -6.334       47.50 0.426
  196.2885  489.6357  -9.237  189.9264  406.1914  -9.239      781.62 0.068
  208.6295  490.1154  -9.231  202.3755  405.9100  -9.232      692.79 0.061
  243.4318  492.5343  -8.570  237.4722  406.1812  -8.571      346.51 0.109
  817.2607  527.2470 -11.236  815.2267  405.5790 -11.232     4301.78 0.037
  418.5854  504.4629 -10.597  414.0027  407.3039 -10.596     2623.16 0.027
  749.4380  524.9431  -9.470  747.0341  407.4436  -9.467      826.81 0.046
   25.2912  480.8148  -8.526   17.3609  407.9056  -8.530      362.42 0.115
  256.7891  494.8001 -10.107  250.9333  407.6219 -10.109     1584.48 0.029
  315.7645  499.2540 -10.299  310.3857  408.4362 -10.299     1652.16 0.033
  561.8697  513.9379  -6.198  558.2882  407.9567  -6.196       49.87 0.477
  574.9464  515.5370  -6.848  571.4481  408.7487  -6.847       82.30 0.320
  125.0862  489.2608  -8.734  118.0661  410.2015  -8.737      454.93 0.112
  341.3869  504.2064  -7.316  336.1933  411.8056  -7.316      113.49 0.300
  737.3014  529.1324  -6.849  734.8109  412.3708  -6.846       79.73 0.313
  151.6662  493.9273  -6.602  144.8690  413.2300  -6.604       65.54 0.360
  992.5026  546.5317 -10.760  991.2590  414.0590 -10.754     3066.19 0.023
  687.7291  529.0540  -7.764  684.9118  415.3040  -7.762      181.30 0.142
  973.3964  546.5504  -8.126  972.0666  415.2516  -8.121      278.33 0.120
  277.3759  504.4159  -6.606  271.6454  415.9627  -6.607       66.93 0.219
  427.2978  513.5215  -7.617  422.7382  415.8178  -7.616      181.68 0.244
  715.9731  531.0786  -7.019  713.3487  415.6239  -7.017       84.66 0.251
  766.5087  534.4669  -8.802  764.1664  415.9016  -8.799      531.20 0.135
  862.7365  540.2071  -7.122  860.8942  415.7208  -7.117      103.62 0.264
  771.7202  536.0662  -9.638  769.4016  417.1779  -9.634      965.28 0.075
  418.7643  515.3995 -10.409  414.1299  418.2194 -10.408     2235.71 0.037
  876.0305  543.4764  -6.932  874.2444  418.1667  -6.927       85.50 0.350
  114.0836  497.2635  -7.814  106.9115  418.8817  -7.816      220.23 0.161
  448.4860  520.3589  -8.471  444.0548  421.3454  -8.471      344.78 0.093
  735.9615  537.2530  -8.494  733.4318  420.5597  -8.491      286.84 0.123
  120.2237  500.5051 -10.298  113.0912  421.7448 -10.300     2013.25 0.036
  151.1043  502.3775  -8.878  144.2530  421.7136  -8.881      506.74 0.093
  609.4881  530.5805  -6.435  606.1580  421.6458  -6.433       64.72 0.423
  913.6624  549.4735  -7.791  912.0429  421.8382  -7.787      196.63 0.125
  497.0434  525.1860 -10.793  492.9495  423.1808 -10.792     3274.62 0.030
  523.2649  526.5878 -10.477  519.3533  422.9682 -10.476     2276.50 0.033
  857.0105  547.1492  -9.345  855.1135  423.0005  -9.341      934.03 0.078
  771.7960  543.4822  -7.201  769.4497  424.5758  -7.197       94.08 0.309
  785.1769  544.5219  -9.928  782.9021  424.7915  -9.924     1428.55 0.032
  666.0817  538.8017  -7.170  663.0869  426.3703  -7.168      115.95 0.170
  684.7094  540.0325  -8.637  681.8275  426.4522  -8.635      387.93 0.085
  872.1268  551.2727  -9.266  870.2927  426.1870  -9.262      694.32 0.069
  815.8756  549.5766  -6.960  813.7513  427.9504  -6.956       70.73 0.444
  922.7615  555.8592  -7.017  921.1647  427.6507  -7.013       92.26 0.250
 1010.2485  561.3083  -6.471 1009.0391  427.7087  -6.465       67.50 0.454
   27.9467  502.1541  -7.681   19.9081  429.0856  -7.685      180.96 0.105
  319.1586  519.5669  -8.846  313.7014  428.5271  -8.847      472.94 0.100
  394.8208  524.0854  -6.182  389.9565  428.3745  -6.182       45.37 0.476
  502.6960  531.1304  -6.712  498.6155  428.7714  -6.711       64.66 0.341
  655.6325  540.3683  -9.503  652.5640  428.5783  -9.500      811.87 0.080
  954.6962  559.3896 -10.404  953.2399  429.2101 -10.399     2121.14 0.027
  413.7077  526.7759  -7.319  408.9787  429.8979  -7.319      148.40 0.270
  327.0214  522.3604  -9.433  321.6152  430.8338  -9.434      803.79 0.069
  267.3831  520.7565 -10.597  261.4781  432.9126 -10.598     2248.59 0.075
  544.4373  537.7445  -6.869  540.6254  432.8094  -6.868       84.67 0.241
  692.1431  547.3621  -7.490  689.2774  433.3133  -7.487      140.55 0.142
  117.6161  512.9432  -7.646  110.3855  434.3443  -7.648      133.03 0.240
  283.8684  522.7366 -10.263  278.0951  433.8739 -10.264     1951.32 0.043
  668.2273  546.9539  -7.107  665.2119  434.3790  -7.104      103.03 0.287
  842.0080  557.8812  -6.424  839.9932  434.6334  -6.420       65.99 0.478
  147.4633  516.1451  -7.402  140.4980  435.7049  -7.405      113.49 0.276
  242.3232  522.8425  -7.440  236.1870  436.5457  -7.441      128.25 0.185
  718.5467  551.3714  -8.722  715.8591  435.7253  -8.720      482.06 0.069
  847.3451  559.0468  -7.543  845.3542  435.4687  -7.539      131.27 0.174
  853.1011  560.1735  -6.987  851.1362  436.2395  -6.983       99.70 0.281
  300.3405  527.6818  -8.316  294.6817  437.7997  -8.317      289.58 0.101
  587.1489  545.3029  -6.721  583.6021  437.7267  -6.719       61.50 0.287
  884.2053  564.8928  -6.364  882.3846  439.0369  -6.359       54.46 0.420
  531.4047  544.1384  -7.698  527.4703  439.9999  -7.697      161.86 0.179
  894.7594  565.9828  -6.627  892.9888  439.4754  -6.622       71.89 0.291
  637.7404  551.6734  -6.588  634.5068  440.9712  -6.586       66.58 0.338
  784.6591  560.8905  -6.939  782.3199  441.1631  -6.935       77.55 0.274
  175.0358  524.0081  -6.929  168.2833  441.8663  -6.932       91.43 0.311
 1007.2052  575.7679  -8.118 1005.9384  442.3213  -8.113      251.93 0.079
  100.5493  520.3355  -6.375   93.1100  442.7909  -6.378       57.15 0.442
  232.5895  528.5451  -9.867  226.3354  442.8481  -9.869     1297.29 0.046
  128.8087  524.2905  -6.870  121.6188  445.0018  -6.873       93.89 0.329
  193.7456  528.7125  -9.015  187.1392  445.4156  -9.017      562.32 0.092
  263.6291  533.8233  -8.612  257.6205  446.2067  -8.614      403.81 0.070
  947.8949  575.4415  -6.808  946.3546  445.6452  -6.803       73.62 0.309
   69.1548  523.3154  -8.920   61.3893  447.7101  -8.924      485.00 0.105
  176.4046  530.4544  -6.238  169.6280  448.2277  -6.240       46.62 0.494
  439.0708  546.3823  -7.057  434.4434  447.9262  -7.057      110.20 0.252
  515.7391  550.5984  -7.299  511.6626  447.4179  -7.298      111.36 0.211
 1013.4422  581.9223  -6.306 1012.1846  448.0776  -6.300       54.31 0.397
  151.9138  530.0275  -6.391  144.9101  449.3128  -6.394       45.90 0.499
  563.9534  554.8719  -8.183  560.2022  448.7155  -8.182      287.49 0.149
  654.3840  560.3981  -9.282  651.2224  448.6590  -9.280      740.84 0.072
  730.2197  565.1513  -8.979  727.5487  448.7659  -8.976      514.60 0.088
  428.0215  547.3632 -10.161  423.3043  449.5868 -10.161     1553.58 0.032
  675.4938  562.7622  -7.279  672.4587  449.7186  -7.277      118.18 0.198
  240.2554  537.6317  -6.556  234.0195  451.4587  -6.558       66.43 0.442
  359.2196  544.9793  -8.049  353.9633  451.4523  -8.050      231.35 0.131
   46.0255  526.2826  -8.482   38.0107  452.1073  -8.485      352.78 0.102
  661.0948  564.3173  -6.016  657.9603  452.1596  -6.014       41.93 0.452
  250.4529  540.0902  -6.266  244.2941  453.2864  -6.268       50.32 0.451
  336.8065  546.2424  -8.944  331.3580  454.0994  -8.945      359.22 0.409
  473.4736  555.9678 -10.082  469.0613  455.3854 -10.081     1486.61 0.034
  587.9929  563.1619  -6.764  584.3727  455.5142  -6.763       61.15 0.337
  166.0771  537.1526  -8.748  159.1657  455.5636  -8.750      426.09 0.067
  769.5344  574.3466 -10.033  767.0583  455.5275 -10.030     1416.68 0.037
  570.1414  564.2207  -7.401  566.3918  457.6733  -7.399      114.51 0.261
  296.9677  548.1680  -8.225  291.1711  458.4863  -8.227      218.91 0.373
  891.0730  585.2480  -7.034  889.2159  458.9300  -7.030       75.42 0.221
  916.3007  586.8028  -8.000  914.5673  458.9281  -7.995      197.59 0.174
  971.9340  589.7224  -7.060  970.4622  458.4161  -7.055       83.66 0.267
  693.0393  573.7328  -8.290  690.0701  459.5932  -8.288      282.22 0.099
  744.0497  578.3515  -6.440  741.4100  461.0950  -6.438       55.12 0.354
  729.1013  577.8866 -10.430  726.3745  461.5511 -10.427     1884.58 0.031
  994.7250  595.2219  -6.663  993.3422  462.5001  -6.658       74.74 0.367
   88.4117  542.0603  -6.982   80.7242  465.2716  -6.985       85.25 0.415
  522.2232  568.6049  -8.173  518.1105  465.0094  -8.172      286.09 0.144
  903.3593  591.6403  -6.942  901.5435  464.5534  -6.937       70.49 0.212
  405.0883  562.0526  -8.934  400.1188  465.6823  -8.934      524.88 0.110
  417.6789  564.4432  -6.756  412.7982  467.2934  -6.756       74.63 0.324
  251.8926  555.2192  -6.188  245.6637  468.3235  -6.190       49.92 0.421
  207.2143  552.9684  -7.114  200.5946  468.8373  -7.116      104.13 0.267
  409.3673  565.5401  -8.956  404.4150  468.9033  -8.957      545.30 0.094
  795.6472  589.1918  -9.276  793.2637  468.7418  -9.273      747.62 0.068
  440.6016  568.7303  -8.231  435.8788  470.1642  -8.231      309.94 0.127
  698.8033  584.3739  -6.408  695.8267  469.8655  -6.406       62.92 0.375
  425.1646  568.2934 -10.864  420.3242  470.6791 -10.864     2998.87 0.042
  624.3210  581.2664  -6.538  620.8702  471.3581  -6.537       61.78 0.459
  187.1920  555.9949  -7.875  180.3703  473.1022  -7.878      189.90 0.291
  677.5870  585.9702  -6.858  674.4683  472.7691  -6.856       67.91 0.358
  727.0936  589.5282  -9.348  724.3099  473.3000  -9.346      737.26 0.063
  245.2194  560.1055  -7.035  238.9042  473.6222  -7.037       89.72 0.268
  412.0280  571.6747  -6.598  407.0670  474.8700  -6.598       72.50 0.339
  770.1129  594.1483  -6.480  767.5653  475.2633  -6.478       49.67 0.324
  486.6435  577.8277  -8.756  482.2267  476.4177  -8.756      429.40 0.084
  560.7977  582.1008  -8.440  556.9015  476.1137  -8.439      388.22 0.131
  905.8744  603.2175  -7.643  904.0316  475.9542  -7.639      159.90 0.231
  303.8584  567.3877  -9.035  298.0190  477.2744  -9.036      584.43 0.078
  581.0155  584.1508  -9.165  577.2534  476.9134  -9.164      692.61 0.062
  690.3327  591.1992  -7.410  687.2740  477.2054  -7.408      136.28 0.236
  187.4671  560.8457  -8.044  180.6205  477.9364  -8.046      209.97 0.293
  543.8592  582.6314  -7.556  539.8386  477.6900  -7.555      156.83 0.153
  831.5604  600.4563  -8.079  829.3333  477.7767  -8.076      257.75 0.130
  808.5434  600.4604  -9.609  806.1899  479.1986  -9.606     1044.72 0.039
  933.3328  607.7023  -7.130  931.6150  478.7380  -7.126       98.22 0.201
  379.5596  574.6000 -10.784  374.3210  479.8016 -10.785     2937.00 0.026
  726.0607  595.6918  -9.498  723.2470  479.5188  -9.496      743.73 0.127
   77.2501  558.4288  -9.613   69.3538  482.3377  -9.616      896.92 0.066
  117.8011  560.9991  -8.054  110.2894  482.3994  -8.057      219.95 0.132
   69.4101  558.6779  -6.800   61.4339  483.0722  -6.803       82.17 0.386
   17.5893  556.1619  -6.368    9.1017  483.7570  -6.372       53.56 0.498
  917.6078  611.7185  -6.539  915.7965  483.7163  -6.535       66.82 0.403
  332.7050  576.6731  -8.870  327.0641  484.7726  -8.871      517.32 0.095
   51.5081  560.4900  -7.678   43.3404  485.9937  -7.682      174.57 0.133
  200.6795  569.5883  -9.523  193.9062  485.8624  -9.526     1001.35 0.055
  285.7495  575.4115  -7.355  279.7101  486.4176  -7.356      119.60 0.225
  110.4559  565.0977  -9.649  102.8482  486.9543  -9.652     1101.09 0.063
  379.8861  581.5599  -9.282  374.6154  486.7386  -9.283      670.96 0.094
  571.2022  594.6764 -10.976  567.3236  488.0362 -10.975     3756.16 0.027
  769.7875  607.0879  -7.593  767.1890  488.2045  -7.590      153.23 0.194
  163.3407  571.2662  -6.825  156.2075  489.8513  -6.827       89.14 0.381
  134.1974  570.7998  -7.592  126.7874  491.1889  -7.595      140.46 0.209
  269.7434  578.5874  -6.867  263.5459  490.5845  -6.869       68.50 0.272
  324.6351  582.0179  -7.529  318.8975  490.6157  -7.530      148.96 0.146
  366.2582  584.8473 -11.187  360.8580  490.8682 -11.188     4676.58 0.036
  611.8607  599.1691  -6.431  608.2470  490.0131  -6.430       48.65 0.500
  396.0949  588.0431  -8.524  390.9249  492.2164  -8.525      384.11 0.110
  427.2560  589.8926  -8.636  422.3278  492.1378  -8.636      380.52 0.107
  953.2733  622.2972  -9.844  951.6075  492.0760  -9.840     1239.78 0.035
  338.8255  584.9801  -9.903  333.1937  492.6989  -9.904     1348.70 0.041
  564.2665  599.3025  -6.657  560.3176  493.0873  -6.657       81.81 0.348
  795.6330  613.2485  -9.154  793.1594  492.7633  -9.151      676.26 0.071
  808.2264  614.1843  -8.336  805.8201  492.9214  -8.333      323.52 0.135
  861.9435  617.8540 -11.522  859.8154  493.2746 -11.519     6007.61 0.023
  419.3778  591.2665  -7.089  414.3806  493.9976  -7.090       99.49 0.302
  586.5235  601.7593  -7.357  582.7219  494.1667  -7.356      112.98 0.250
  526.8314  598.4805 -11.580  522.6144  494.5788 -11.580     5416.48 0.029
  834.4501  617.8709  -6.605  832.1747  494.9861  -6.602       72.66 0.350
  644.1357  606.8359 -10.255  640.7085  495.6788 -10.254     1776.32 0.036
  706.6507  610.5428  -6.994  703.6609  495.5478  -6.993       78.19 0.409
  181.3097  579.1064 -11.134  174.3015  496.5811 -11.137     3753.48 0.051
  205.7410  581.5767  -6.713  198.9470  497.5388  -6.715       88.30 0.308
  957.4317  629.9319  -9.201  955.7621  499.4399  -9.196      621.13 0.096
  218.1247  585.1873  -7.035  211.4248  500.3826  -7.038       96.08 0.347
  793.0814  620.7946  -7.745  790.5651  500.4561  -7.743      155.13 0.141
  683.4571  614.9221 -10.605  680.2556  501.3275 -10.604     2324.15 0.032
  711.7019  615.9659  -9.037  708.7222  500.6529  -9.035      569.80 0.079
  231.3248  587.3185  -7.801  224.7340  501.6959  -7.804      185.69 0.160
  340.5761  594.5560  -7.786  334.9098  502.1644  -7.787      190.34 0.188
  488.7620  602.9808  -6.645  484.2432  501.4247  -6.645       53.95 0.432
  721.3000  617.9246  -9.808  718.3715  502.0173  -9.806     1149.73 0.058
  895.1135  628.4594  -9.653  893.1263  501.8162  -9.649      909.10 0.299
  563.4019  608.8531  -8.735  559.4039  502.6845  -8.734      436.90 0.093
  129.3163  583.6073  -7.741  121.7841  504.3039  -7.744      132.86 0.328
  907.2548  631.4498  -7.909  905.3220  504.0521  -7.906      212.17 0.155
  668.2815  620.1921  -7.018  664.9585  507.5303  -7.017       76.86 0.248
   39.7400  582.8451  -8.844   31.3157  509.0938  -8.848      465.86 0.094
  235.4565  594.9317 -10.626  228.8613  509.0540 -10.628     2865.86 0.037
  706.5745  625.3347  -7.299  703.5267  510.3275  -7.297      111.99 0.158
  373.7914  605.4876  -7.312  368.3501  511.0365  -7.314      104.44 0.246
  609.5635  620.2036  -7.503  605.8420  511.1723  -7.502      135.24 0.259
  424.8464  609.2365  -6.970  419.8059  511.6224  -6.971      109.98 0.362
  983.9285  644.1658  -7.002  982.3445  512.0121  -6.998       80.69 0.397
  852.1556  637.2768  -6.451  849.9050  513.2714  -6.448       54.52 0.431
  898.1901  639.3776  -7.083  896.1815  512.5269  -7.079      100.59 0.270
  959.1066  643.3227  -6.812  957.4024  512.7033  -6.808       70.85 0.366
  364.2649  608.2246  -8.778  358.7297  514.3633  -8.779      525.68 0.235
  597.2064  622.2040  -6.436  593.3898  513.9353  -6.435       60.97 0.494
  112.0822  593.0283  -8.263  104.3256  514.7980  -8.266      236.40 0.257
  131.1851  594.7245  -6.454  123.6062  515.3108  -6.457       54.96 0.426
  304.0618  604.6130  -9.502  298.0270  514.4829  -9.503      888.52 0.066
  437.1142  613.1692  -8.819  432.1510  514.7964  -8.819      454.88 0.091
  106.2118  593.4766  -8.461   98.3946  515.6106  -8.465      320.26 0.070
  636.8479  627.5832  -9.170  633.2830  516.8584  -9.169      684.54 0.082
  749.5324  635.0425  -7.544  746.7079  517.3729  -7.542      133.67 0.191
  770.3591  636.4372  -9.369  767.6525  517.4805  -9.367      686.08 0.051
  952.9984  647.4158  -9.189  951.2501  517.1665  -9.185      661.48 0.069
  195.4089  601.5242 -10.418  188.4061  518.1318 -10.421     2009.39 0.038
  310.6139  608.7610  -7.695  304.6145  518.2249  -7.697      173.59 0.214
  317.7977  610.8179 -10.441  311.8503  519.8367 -10.443     2335.52 0.037
  530.6088  623.7044 -13.802  526.3041  519.5538 -13.801    43687.42 0.020
   40.9352  594.2320 -10.754   32.4539  520.4154 -10.759     1813.07 0.420
  394.9410  617.1214  -7.159  389.6172  521.3580  -7.160      104.66 0.274
  901.8813  648.1851  -8.977  899.8629  521.0927  -8.974      575.86 0.076
  630.3528  632.2595  -7.932  626.7239  521.9325  -7.931      218.10 0.129
   35.1333  596.4625  -9.750   26.5785  523.0077  -9.754     1101.20 0.104
  261.1648  610.7260  -6.956  254.7165  523.2572  -6.958       78.43 0.357
  456.4133  622.0666  -7.185  451.5575  522.4989  -7.186       92.76 0.290
  763.5838  641.3703  -8.124  760.8183  522.8260  -8.122      265.05 0.143
  996.5131  656.1483 -12.009  994.9513  523.1954 -12.004     9904.09 0.020
   69.4815  599.2711  -6.658   61.2615  523.6872  -6.662       63.37 0.401
  782.1398  643.4242  -7.116  779.4754  523.7318  -7.113      110.88 0.285
  269.1498  613.2618  -8.415  262.7596  525.2983  -8.417      305.45 0.146
  572.5378  631.6745  -9.621  568.5045  524.9247  -9.621      993.24 0.066
  789.2481  644.6004  -6.764  786.6204  524.4677  -6.761       59.41 0.283
  161.1671  606.8857  -7.074  153.8083  525.6190  -7.077       85.20 0.292
  468.9664  626.5496  -7.887  464.1861  526.2047  -7.887      229.28 0.120
  863.0636  651.3411  -7.387  860.8224  526.6427  -7.383      137.40 0.180
  285.9366  617.3247  -7.695  279.6747  528.3206  -7.697      126.80 0.215
  685.3044  643.7332  -8.595  681.9974  529.9972  -8.594      402.99 0.201
  806.1618  651.5235  -8.380  803.6055  530.3380  -8.378      291.90 0.116
   61.8100  606.0644  -7.711   53.4712  530.9618  -7.715      161.27 0.188
  388.1184  626.1589  -8.232  382.6924  530.8176  -8.233      284.95 0.143
  717.4782  646.5506 -12.296  714.4118  530.8482 -12.295    11752.32 0.012
   72.5615  607.2117  -6.207   64.3252  531.4426  -6.211       46.93 0.427
  921.8499  660.4796  -7.005  919.8972  532.1340  -7.001       95.75 0.269
  142.4823  615.5202  -9.807  134.8927  535.4175  -9.810     1136.58 0.079
  779.1697  654.7889 -10.612  776.4447  535.2667 -10.609     2308.62 0.039
   99.9068  613.0954 -12.792   91.9109  535.6334 -12.795    19048.27 0.026
  512.4046  638.7060  -9.990  507.8972  535.6714  -9.990     1316.52 0.098
  212.7958  622.0259  -7.139  205.8407  537.5630  -7.142       93.45 0.358
  372.9154  634.2774  -7.628  367.3207  539.8791  -7.629      173.95 0.193
  493.4388  641.4822  -8.220  488.7756  539.6191  -8.221      278.61 0.090
  700.0023  654.2040 -10.446  696.7494  539.5497 -10.445     1811.19 0.166
  978.2895  671.8192  -8.514  976.5903  539.9660  -8.510      377.32 0.086
 1008.1938  673.5372  -8.638 1006.6328  539.8315  -8.633      378.76 0.105
  383.5157  636.1584 -10.347  378.0008  541.1025 -10.348     2152.47 0.035
  409.7398  637.5647  -9.514  404.4360  540.8818  -9.515      879.87 0.065
  473.9175  641.1513  -8.410  469.1061  540.4956  -8.410      316.76 0.082
  751.2500  659.2112 -10.162  748.3409  541.4094 -10.160     1555.50 0.049
  956.5604  671.0515  -6.440  954.7538  540.5432  -6.436       52.61 0.398
  609.8277  651.0624  -7.207  605.9766  541.9915  -7.207      110.00 0.224
  515.7493  646.1836  -7.509  511.2328  542.9388  -7.509      146.47 0.218
  578.7266  650.3852  -7.306  574.6564  543.2401  -7.305      126.43 0.190
  190.3910  627.3431  -7.177  183.1947  544.2738  -7.180      109.66 0.266
  431.0119  642.0044  -6.494  425.8591  544.0028  -6.495       71.01 0.492
  671.7743  657.2442  -6.865  668.3228  544.3344  -6.863       77.95 0.215
  923.9344  672.4356  -6.976  921.9532  543.9432  -6.972       86.69 0.270
   75.7064  620.6446  -7.620   67.4217  544.6911  -7.624      147.43 0.210
  145.9622  625.2272  -9.113  138.3504  544.9146  -9.116      697.67 0.098
  241.6030  630.9945  -6.720  234.8657  544.7466  -6.723       68.17 0.345
  377.0534  639.9235  -7.890  371.4651  545.2687  -7.892      170.30 0.207
  327.3107  638.2462 -10.198  321.3037  546.6787 -10.200     1681.08 0.032
  547.8017  652.0203  -7.306  543.4977  546.7891  -7.306      134.38 0.237
  978.0271  678.5514  -7.914  976.3051  546.7035  -7.910      218.34 0.162
   28.2797  623.8184  -6.274   19.4880  550.8071  -6.278       52.31 0.463
  444.3435  649.8864  -6.711  439.2585  551.0589  -6.712       63.01 0.400
  189.3209  636.1794  -8.304  182.0644  553.1816  -8.308      291.79 0.151
  717.6173  668.8281 -10.249  714.4611  553.0967 -10.248     1660.33 0.040
 1016.7854  687.8592  -6.367 1015.2202  553.5976  -6.362       49.85 0.388
  142.9592  635.2574  -6.663  135.2599  555.1383  -6.667       61.02 0.425
  480.2285  656.6327  -7.129  475.3929  555.5823  -7.129       91.89 0.265
  729.6968  672.8273  -8.281  726.6005  556.3453  -8.279      238.80 0.189
  738.9160  672.6862  -8.663  735.8778  555.6341  -8.661      390.66 0.112
  877.4082  681.2671  -6.884  875.1432  555.6421  -6.881       82.88 0.246
   30.5030  630.5550  -8.788   21.6945  557.4127  -8.793      427.52 0.066
  332.5450  649.2164  -8.807  326.5269  557.3265  -8.809      387.53 0.081
  561.9798  663.6075 -12.457  557.7294  557.4923 -12.457    12273.71 0.032
  608.0583  665.4944  -7.154  604.1332  556.5240  -7.154       95.68 0.150
  304.4981  648.8018  -9.742  298.2348  558.6539  -9.744     1138.16 0.059
  317.1406  650.0290  -8.290  310.9829  559.0962  -8.292      290.94 0.142
  398.2191  654.5643  -6.217  392.7348  558.5967  -6.218       57.41 0.475
  777.5778  678.3383  -9.348  774.7535  558.8898  -9.346      833.77 0.057
  807.5192  680.0073 -10.513  804.8654  558.7055 -10.510     2356.70 0.036
  919.6626  687.0279 -10.767  917.6103  558.7793 -10.763     2778.68 0.038
  426.8187  657.2851 -13.579  421.5570  559.5424 -13.580    32318.61 0.024
  582.1380  667.2615  -9.315  578.0192  559.8958  -9.315      854.09 0.071
  869.5820  685.1324  -7.186  867.2597  559.9873  -7.184       99.56 0.230
  905.0584  686.9771  -8.874  902.9272  559.6328  -8.870      498.20 0.092
  938.7299  689.0925  -8.469  936.7722  559.6605  -8.465      374.59 0.092
  998.3537  693.4238  -7.771  996.6837  560.2941  -7.767      187.13 0.138
  267.9771  649.2474  -6.822  261.3824  561.3690  -6.824       78.38 0.437
  858.8300  685.5005  -7.369  856.4474  561.0198  -7.366      123.55 0.187
   88.6352  638.6341  -8.374   80.3745  561.8932  -8.378      325.80 0.098
   98.7699  639.8177  -9.914   90.6046  562.4479  -9.918     1038.05 0.085
  717.4540  677.2775  -9.603  714.2623  561.5491  -9.602      971.67 0.049
  947.0883  692.0510  -6.589  945.1647  562.0974  -6.585       71.19 0.393
   82.4289  639.1621  -7.377   74.1020  562.8073  -7.381      134.34 0.191
  787.9978  682.5098  -8.989  785.2198  562.4128  -8.987      496.06 0.097
   30.3123  637.1921  -7.302   21.4622  564.0689  -7.306       95.63 0.244
  466.6845  663.8793  -9.532  461.7088  563.6664  -9.533      908.95 0.051
  335.0969  657.0914  -6.845  329.0602  565.0452  -6.847       85.34 0.361
  683.7561  678.6644  -7.111  680.2979  564.9974  -7.110      112.68 0.249
  188.5511  650.0367  -9.866  181.2086  567.0955  -9.869     1384.14 0.046
  295.0205  658.0061  -7.351  288.6239  568.4507  -7.353      109.47 0.276
  196.6773  652.4694  -8.606  189.3986  569.0249  -8.609      328.24 0.160
  738.2024  686.2057  -7.094  735.1059  569.1863  -7.092      109.35 0.314
   77.4681  646.0333  -7.388   69.0496  569.9936  -7.392      134.89 0.176
  639.4925  682.9358 -13.639  635.7148  572.0084 -13.638    43463.25 0.022
  725.2376  688.6050  -7.178  722.0496  572.3862  -7.177       99.72 0.186
  547.4765  678.5560  -6.994  543.0521  573.3331  -6.994       96.03 0.256
  656.9897  684.5515  -9.377  653.3263  572.5391  -9.377      762.70 0.094
  701.0680  687.3754  -7.334  697.6899  572.6304  -7.333      121.68 0.188
  763.0410  692.4374  -6.678  760.0742  573.8755  -6.676       74.25 0.351
  221.8154  660.0395  -7.462  214.7331  575.0368  -7.465      147.88 0.152
  591.8316  682.5700  -7.745  587.7169  574.5963  -7.744      165.85 0.171
  206.3293  659.9564  -7.212  199.1005  575.9168  -7.215      145.46 0.301
  740.5805  694.0331  -7.047  737.4677  576.8603  -7.046      104.66 0.313
  539.6895  682.8328  -7.208  535.1874  578.0913  -7.209      107.39 0.232
  845.1541  702.1782  -7.655  842.6365  578.5249  -7.653      154.08 0.234
  904.7467  707.7929 -11.435  902.5440  580.4418 -11.432     4579.41 0.028
  926.0889  708.8408  -8.395  923.9990  580.1656  -8.392      333.95 0.140
  733.7645  697.4834  -7.508  730.5950  580.7301  -7.506      135.79 0.196
  612.1769  690.9854  -8.491  608.1726  581.7470  -8.491      338.96 0.106
  690.0494  696.4274  -6.900  686.5618  582.3596  -6.899       76.77 0.281
  837.6882  705.0250  -8.497  835.1179  581.8310  -8.495      342.61 0.115
  966.1538  712.6907 -13.985  964.2625  581.5274 -13.981    51816.15 0.020
   19.2471  654.6148  -7.089   10.1758  582.2000  -7.093       84.49 0.334
  110.2462  662.1826  -7.326  102.0646  584.1201  -7.330      150.66 0.240
  364.6465  677.3621  -6.798  358.7621  583.4853  -6.800       86.71 0.357
  405.4173  680.5650  -7.863  399.8632  584.1541  -7.864      182.49 0.181
  131.0414  664.0173 -13.796  123.0572  584.6630 -13.800    49102.19 0.024
  461.2054  684.3318  -7.281  456.0886  584.4574  -7.282      113.95 0.406
  866.2279  709.7098  -9.516  863.8026  584.7443  -9.514      951.82 0.069
   93.3779  662.6999  -7.852   85.0224  585.6875  -7.857      207.30 0.133
  168.6147  668.0121  -8.281  160.9773  586.3242  -8.284      323.86 0.126
  223.1500  671.0338  -9.474  216.0193  585.9555  -9.478      918.20 0.069
  332.7691  678.0442  -7.822  326.6036  586.1503  -7.824      179.68 0.144
  356.9272  679.2080  -7.651  350.9667  585.8120  -7.653      165.59 0.221
  418.4909  682.9415 -10.125  413.0340  585.7181 -10.127     1660.81 0.048
  897.6787  712.5315  -7.435  895.4210  585.6131  -7.432      114.57 0.270
  371.5723  680.9514  -6.472  365.7292  586.6452  -6.473       60.56 0.354
  697.8667  701.4465  -9.973  694.4112  586.8913  -9.973     1407.19 0.056
  433.4854  686.6845 -13.622  428.1333  588.5306 -13.624    38318.32 0.021
  575.4203  696.3197  -8.270  571.1257  589.3583  -8.270      268.98 0.116
  989.2595  721.7830  -9.571  987.4560  589.1749  -9.567      858.99 0.067
  770.4397  709.0502  -7.824  767.4542  590.0168  -7.822      195.55 0.136
  237.0329  676.9278  -8.754  230.0006  590.9898  -8.757      512.24 0.103
  794.4865  711.0336  -7.586  791.6401  590.5091  -7.584      130.37 0.167
  411.4345  688.3388  -8.444  405.8919  591.5554  -8.445      348.59 0.096
  755.1570  710.5479 -11.381  752.0706  592.4602 -11.380     4826.50 0.019
  922.4545  719.8672  -7.028  920.3085  591.4039  -7.025       86.59 0.255
  853.7821  716.7058  -9.885  851.2624  592.5039  -9.882     1226.23 0.034
  145.6345  674.0240  -7.051  137.7369  593.7712  -7.055      105.94 0.255
  942.7593  723.6740 -10.606  940.7099  593.9469 -10.603     2619.55 0.034
  273.4450  683.6610 -10.779  266.7153  595.4613 -10.782     2746.76 0.038
  314.7430  685.4141  -9.249  308.3793  594.6453  -9.251      652.27 0.059
  516.3694  699.2429  -6.495  511.6156  595.9441  -6.496       59.05 0.331
  857.8773  722.4583  -8.920  855.3608  597.9971  -8.918      516.53 0.094
  932.7590  727.9298 -10.415  930.6422  598.8180 -10.412     2039.40 0.035
   25.8749  673.0439  -8.076   16.7638  600.2405  -8.081      270.21 0.175
  102.4255  678.7594  -8.031   94.0669  601.2012  -8.035      234.89 0.160
  181.8424  683.5566  -7.387  174.2448  601.0592  -7.390      115.79 0.255
  921.1019  729.6082  -9.948  918.9162  601.2177  -9.945     1506.18 0.056
 1007.7410  735.6417  -9.837 1005.9843  601.8684  -9.834     1300.32 0.052
  107.9767  682.2765  -8.033   99.6538  604.3765  -8.038      210.04 0.114
  630.0013  714.0844  -6.628  626.0265  603.7319  -6.628       65.07 0.455
  766.5211  723.1605  -7.662  763.4568  604.3597  -7.660      158.01 0.229
   92.7907  681.8627  -9.599   84.3156  604.9079  -9.604     1015.25 0.052
  402.0381  700.6278  -9.937  396.3553  604.4327  -9.939     1136.24 0.042
  534.3313  709.0171  -8.459  529.6710  604.6017  -8.460      311.20 0.092
  773.1237  724.6703  -7.778  770.0948  605.4592  -7.777      173.68 0.201
   62.1513  680.6359  -8.249   53.3673  605.5879  -8.254      245.97 0.116
  192.5240  689.4707  -7.296  184.9962  606.3138  -7.299      135.13 0.240
  749.7377  723.8061  -6.541  746.5651  606.0453  -6.540       66.12 0.444
  853.3854  730.5891  -7.332  850.8149  606.3988  -7.329      102.56 0.257
  361.0119  701.1666  -6.836  354.9747  607.5256  -6.838       70.07 0.311
  253.1830  696.0788  -7.683  246.1977  609.1494  -7.686      165.21 0.173
  476.2804  709.6913  -7.134  471.1634  608.8823  -7.135       94.97 0.282
  762.6785  727.6893  -9.296  759.5726  609.1238  -9.294      755.00 0.083
  239.8321  696.5123  -6.556  232.7186  610.4148  -6.559       53.79 0.281
  401.1301  707.2303  -8.124  395.4066  611.0941  -8.126      240.10 0.143
  528.2995  716.7585 -10.313  523.5581  612.7169 -10.314     1777.25 0.048
  273.1351  702.6260  -9.876  266.3006  614.4588  -9.879     1213.27 0.497
  318.3074  704.4892  -7.709  311.8761  613.5097  -7.712      158.66 0.168
  771.8220  733.2095  -7.024  768.7521  614.0735  -7.022       89.68 0.474
  134.2939  694.6426 -10.428  126.1638  615.1172 -10.432     2289.13 0.032
  542.3429  719.4689  -7.088  537.6973  614.5548  -7.088       81.74 0.340
  625.3251  724.6119  -9.578  621.2726  614.5464  -9.578      820.49 0.205
  640.5183  725.5725 -10.724  636.5701  614.5639 -10.724     2365.47 0.038
  378.2673  711.0865  -7.361  372.3290  616.3758  -7.363      122.90 0.349
  420.5068  713.7059 -10.840  414.9143  616.3657 -10.842     3100.48 0.027
  657.1954  727.6539 -11.062  653.3560  615.6098 -11.062     3584.43 0.030
  707.1469  730.9340  -6.470  703.6685  615.8108  -6.470       69.39 0.434
  844.8511  739.9343  -7.185  842.1982  616.2650  -7.183      105.02 0.314
  252.6194  703.4948  -7.110  245.5884  616.6065  -7.114       98.45 0.261
  851.8821  741.2220  -7.874  849.2656  617.1158  -7.872      229.66 0.194
   29.6592  691.1934  -6.855   20.4800  618.1796  -6.861       79.41 0.354
  470.6637  718.7932  -7.298  465.4584  618.3347  -7.299      126.65 0.294
  720.7683  734.2769 -10.119  717.3664  618.3071 -10.118     1419.50 0.055
  937.1301  747.7140  -9.385  934.9719  618.3089  -9.382      823.57 0.055
  982.0425  749.7731  -7.125  980.1146  617.5770  -7.121       84.11 0.252
   43.7904  693.2435  -8.550   34.7378  619.3561  -8.555      352.77 0.112
  146.4786  699.4551  -9.284  138.4423  619.1760  -9.288      670.87 0.062
  670.4546  732.2104  -7.804  666.6888  619.3421  -7.804      164.98 0.187
 1005.6709  753.0566  -6.253 1003.8499  619.3892  -6.250       53.47 0.458
  100.9527  697.8743  -6.231   92.4662  620.4301  -6.235       45.14 0.462
  616.1127  729.8020 -13.919  611.9719  620.3071 -13.919    54839.75 0.031
  369.3851  715.4955  -8.625  363.3476  621.3404  -8.628      377.32 0.085
  734.6871  738.2433  -9.547  731.3604  621.4080  -9.546      823.63 0.041
  594.5428  729.5182  -8.397  590.2455  621.3623  -8.397      298.83 0.085
  680.4576  735.6062  -7.522  676.7470  622.1160  -7.522      148.10 0.194
  756.3183  740.7968 -14.400  753.1210  622.6181 -14.399   569292.25 0.000
  848.5305  745.9365  -8.018  845.8779  622.0343  -8.016      259.92 0.135
  515.4902  726.4698  -7.310  510.6053  623.2243  -7.311      119.66 0.222
  785.5032  742.6208  -8.352  782.4828  622.6304  -8.351      282.11 0.148
  821.8114  745.3592  -9.176  819.0027  623.1146  -9.174      719.79 0.077
  987.2225  755.1739  -8.118  985.3034  622.6497  -8.114      289.27 0.169
   98.1242  704.2108  -7.526   89.5713  626.9509  -7.530      137.36 0.180
  388.1960  722.1176 -10.053  382.2875  626.7939 -10.055     1581.13 0.028
   81.4497  704.1600  -6.502   72.7252  627.9396  -6.507       69.79 0.491
  325.3812  719.0236  -7.249  318.9374  627.6130  -7.251      106.94 0.203
  341.1420  719.9971  -8.336  334.8336  627.6047  -8.338      311.82 0.124
  515.7749  731.0622  -6.943  510.8712  627.7995  -6.943       80.05 0.325
 1000.5811  761.4532  -8.694  998.7089  628.0916  -8.690      428.26 0.138
  352.2182  723.3845  -8.345  345.9902  630.3040  -8.347      312.83 0.060
  578.8005  737.3446  -6.564  574.3519  630.1658  -6.565       66.21 0.385
  194.4441  714.1338 -10.082  186.7954  630.8814 -10.086     1716.72 0.042
  273.1457  718.8104 -10.720  266.2240  630.6556 -10.723     2707.96 0.041
  572.6092  737.5734  -6.888  568.1130  630.7792  -6.889       90.68 0.400
  973.8920  763.7211  -9.977  971.8775  632.0147  -9.974     1472.38 0.113
  617.7899  742.8185 -11.337  613.6054  633.2178 -11.337     4764.67 0.037
  658.1461  745.3156  -9.499  654.2400  633.2081  -9.499      881.61 0.059
  292.7465  722.8692  -9.002  285.9850  633.4959  -9.005      527.71 0.081
  181.4425  718.1019  -9.483  173.6447  635.6643  -9.487      830.42 0.060
  482.7712  737.5306  -7.903  477.5747  636.3242  -7.905      181.30 0.168
  782.2057  755.6893  -8.565  779.1157  635.8959  -8.564      426.25 0.091
  223.1242  722.3742  -9.567  215.7079  637.3418  -9.571      798.79 0.131
  492.8999  739.0500  -8.023  487.7776  637.2136  -8.024      224.55 0.175
  580.1990  744.3453  -8.523  575.7296  637.0802  -8.524      370.10 0.109
  896.4136  763.4620  -7.272  893.9767  636.5712  -7.270      122.22 0.239
  890.2364  764.7129  -6.927  887.7599  638.2050  -6.925       91.94 0.374
  978.4440  770.0499 -12.874  976.4331  638.0532 -12.871    19688.97 0.021
   68.7838  713.8163  -7.815   59.8697  638.3995  -7.820      167.04 0.181
  155.5676  719.5573  -7.083  147.5058  638.7348  -7.088       87.56 0.484
  253.1017  725.5891  -7.402  245.9544  638.6901  -7.405      122.34 0.260
  258.2253  726.0722  -7.408  251.1238  638.8542  -7.412      131.55 0.236
  288.7123  727.6189  -6.432  281.8879  638.5011  -6.435       68.99 0.498
   54.7526  714.3679  -7.791   45.6879  639.8274  -7.797      175.28 0.170
   86.4174  717.0613  -6.512   77.6676  640.5490  -6.517       57.65 0.444
  175.4891  723.2025  -8.419  167.6038  641.1418  -8.423      281.84 0.157
  505.8601  743.5082  -9.504  500.8200  640.8665  -9.505      953.66 0.064
  847.2385  765.8191  -6.526  844.5078  641.9817  -6.525       66.15 0.387
  218.3084  727.3361  -7.008  210.8179  642.6092  -7.012       80.95 0.379
  272.7805  731.4387  -9.295  265.7868  643.3178  -9.298      692.04 0.143
  335.7447  735.3225  -7.909  329.3080  643.2778  -7.912      197.85 0.161
  998.4565  776.6817 -14.250  996.5266  643.4333 -14.246    60454.21 0.021
   39.4209  717.5509  -8.995   30.1744  643.9721  -9.001      601.16 0.056
  868.7939  769.2321  -7.094  866.1773  644.0539  -7.092      108.31 0.293
  795.2274  765.0825  -6.206  792.1837  644.4755  -6.205       54.24 0.491
  813.9299  767.1343  -6.581  810.9940  645.3645  -6.579       59.25 0.237
  145.2965  725.7251  -7.242  137.0966  645.5509  -7.246       93.65 0.295
  329.3068  737.4611  -7.267  322.8010  645.8196  -7.270      108.35 0.242
  488.7003  747.8570  -7.126  483.5026  646.2856  -7.128       87.68 0.261
  165.0533  728.6054  -8.817  157.0340  647.2022  -8.822      560.61 0.125
  186.8185  729.5319  -8.576  179.0086  646.7719  -8.580      431.72 0.094
  437.5608  744.8688  -6.571  431.9583  646.4813  -6.573       67.86 0.466
   83.5294  726.5228  -7.917   74.6933  650.2045  -7.923      210.76 0.182
  212.5769  734.9771  -9.080  204.9881  650.6160  -9.084      604.10 0.080
  446.1302  750.1521  -7.991  440.5735  651.2336  -7.992      198.05 0.134
  703.2790  765.1373  -6.548  699.6371  650.2435  -6.547       55.47 0.458
  414.8841  748.9225 -10.026  409.0707  651.9508 -10.028     1492.11 0.074
  663.6951  764.8036  -6.550  659.7463  652.3485  -6.550       57.77 0.360
  574.7294  760.6249  -7.004  570.1459  653.7026  -7.005       89.01 0.253
  625.0320  765.6614  -8.284  620.8015  655.6107  -8.284      284.15 0.114
  717.6911  772.1746  -8.481  714.1187  656.3834  -8.480      347.21 0.144
  822.0105  778.6898  -7.007  819.0820  656.4113  -7.005       76.82 0.326
  183.8605  739.3750  -7.732  175.9658  656.8113  -7.736      192.33 0.167
  550.1032  762.7409  -8.132  545.3210  657.3516  -8.133      220.73 0.146
  924.3770  786.0800  -7.639  922.0217  657.4295  -7.637      151.16 0.205
  194.3649  741.8363  -7.094  186.5595  658.6199  -7.098       83.80 0.270
  887.8511  785.5558  -8.473  885.2892  659.1792  -8.471      311.47 0.142
  297.1869  750.8296  -7.386  290.3161  661.2044  -7.390      109.09 0.200
  475.5542  761.3148 -11.483  470.1863  660.5690 -11.485     5394.08 0.038
  768.7459  779.9667  -8.776  765.4789  660.9988  -8.775      449.53 0.120
  973.3857  792.7036  -6.849  971.2760  660.9968  -6.847      105.98 0.468
  123.9695  742.7039  -9.204  115.4550  663.8841  -9.209      640.98 0.078
  610.0200  774.5735  -8.244  605.6401  665.4580  -8.245      246.85 0.120
  460.2507  765.4431  -8.437  454.7374  665.6536  -8.439      326.33 0.096
  401.5868  762.9444 -10.157  395.5896  666.8123 -10.159     1593.87 0.034
   49.8669  742.2876  -7.672   40.5816  668.0970  -7.677      150.50 0.147
  738.5359  784.9311  -7.126  735.0526  667.8408  -7.125      119.39 0.302
  437.0222  767.1703  -9.686  431.3070  668.8302  -9.688     1139.42 0.073
  966.6182  800.3933  -8.140  964.4478  669.1002  -8.137      240.53 0.146
  237.3907  755.5164  -7.589  229.9284  669.6296  -7.593      166.51 0.183
  518.8206  773.8138  -8.203  513.7419  670.3778  -8.205      265.70 0.126
  640.7598  780.8477  -6.819  636.5787  669.8194  -6.819       82.31 0.428
  922.9910  798.0501  -6.219  920.5879  669.4759  -6.217       40.60 0.477
  999.7370  803.6148  -9.253  997.7300  670.2570  -9.250      709.92 0.079
  840.3624  794.4094  -6.799  837.4885  670.9815  -6.798       89.54 0.468
  155.5668  752.1344  -8.067  147.3179  671.3542  -8.072      200.50 0.134
  593.5199  779.8910 -10.418  588.9930  671.8040 -10.419     2309.65 0.025
  478.6528  773.4377  -6.735  473.2525  672.5058  -6.737       73.12 0.337
  825.9781  796.7990  -7.047  823.0081  674.2647  -7.045       89.59 0.184
  890.1101  802.2396  -9.401  887.5040  675.7106  -9.399      661.18 0.197
   39.6848  751.0191  -8.664   30.2376  677.4801  -8.670      366.66 0.081
  285.0494  765.4122  -8.508  277.9867  676.5600  -8.511      362.83 0.101
  954.1482  807.9681  -7.314  951.8856  677.4449  -7.312      111.63 0.222
  339.9131  770.5327  -8.579  333.3298  678.2586  -8.582      355.61 0.104
  723.6875  793.8590 -10.165  720.0702  677.6915 -10.165     1782.62 0.040
  204.9700  762.5900  -6.113  197.1521  678.7371  -6.117       39.82 0.449
  308.2669  769.7454  -6.536  301.3974  679.4476  -6.540       55.51 0.477
  560.3510  785.7772  -6.801  555.5437  679.7586  -6.802       79.38 0.317
  849.8946  804.2279  -6.799  847.0431  680.2019  -6.797       73.38 0.331
  481.1811  782.3125  -6.833  475.7594  681.2285  -6.834       91.41 0.211
  535.4210  784.9027 -10.614  530.4221  680.4373 -10.616     2047.88 0.036
  605.7027  790.0718  -8.058  601.2227  681.2287  -8.058      233.57 0.083
  703.4063  795.7537  -7.599  699.6435  680.8489  -7.599      166.31 0.183
  170.7382  764.3429  -7.031  162.5715  682.6318  -7.036       77.49 0.240
  580.0192  789.6982  -9.637  575.3460  682.4554  -9.638      836.84 0.051
  881.4111  808.6270  -7.078  878.7318  682.6362  -7.076       89.15 0.347
  639.0972  794.6905  -8.871  634.8448  683.7677  -8.871      492.37 0.091
  240.7468  770.7361 -11.253  233.2329  684.6580 -11.257     4587.13 0.027
  368.8697  778.6630  -7.377  362.5052  684.5877  -7.380      119.23 0.240
  476.2275  786.6974  -6.408  470.7443  685.9255  -6.410       56.34 0.421
  802.4198  807.7920  -6.788  799.2631  686.7197  -6.787       77.84 0.236
  974.6413  818.6306  -7.412  972.4556  686.8213  -7.409      150.70 0.292
  501.9956  790.3892 -10.732  496.7049  688.0120 -10.733     3041.74 0.045
  697.2109  803.8579  -7.221  693.3362  689.3149  -7.221      106.76 0.235
  743.3195  807.8050  -9.553  739.7795  690.4136  -9.553      850.66 0.055
  872.3149  814.9062  -8.694  869.5596  689.4791  -8.692      338.97 0.086
 1009.5447  823.4255  -6.957 1007.5271  689.4376  -6.954       79.16 0.272
  284.8449  780.1138 -10.936  277.7008  691.2911 -10.940     3251.08 0.033
  295.9515  780.2674 -11.154  288.9109  690.7507 -11.158     4453.05 0.026
  377.2275  785.8238  -9.942  370.9012  691.2330  -9.944     1408.26 0.059
  927.5827  820.0493  -9.562  925.1323  691.1725  -9.559     1023.20 0.054
   94.2140  768.4979  -6.637   85.2402  691.5788  -6.642       50.38 0.471
  644.8648  803.1870  -8.152  640.6183  691.9064  -8.153      279.51 0.173
  945.3686  822.4725  -9.780  943.0101  692.4850  -9.778     1072.07 0.057
  189.3683  775.4460  -8.175  181.3241  692.5859  -8.179      247.97 0.143
  208.6578  776.9882 -10.701  200.7956  692.9240 -10.705     2928.58 0.024
  555.2917  799.8991  -8.883  550.3807  694.2028  -8.885      446.61 0.091
 1015.9266  828.1170  -7.796 1013.9274  693.7272  -7.793      166.89 0.294
  276.9373  783.9257  -8.091  269.6978  695.6019  -8.095      234.13 0.122
  240.9765  783.0516  -7.515  233.3969  696.9749  -7.519      128.83 0.223
  451.1635  798.5507  -6.422  445.4154  699.3522  -6.425       48.67 0.408
  499.8485  801.1423  -8.855  494.4899  698.9065  -8.857      430.13 0.085
  785.7448  819.0371  -6.405  782.4400  699.0009  -6.404       47.39 0.496
  257.7615  787.2522  -6.636  250.3208  700.1315  -6.640       75.44 0.465
  438.2652  799.6399  -9.686  432.4030  701.2477  -9.688      953.80 0.031
  824.6490  824.8608  -8.799  821.5691  702.3988  -8.798      425.49 0.082
  977.8755  834.0610  -7.005  975.6582  702.0373  -7.003       90.14 0.214
   79.1371  778.4008  -9.169   69.9458  702.4427  -9.175      631.44 0.065
  679.7800  816.3140  -7.526  675.7308  702.8587  -7.527      138.04 0.197
  721.7383  819.5233 -11.256  718.0071  703.4768 -11.256     3940.62 0.084
  174.2422  786.2114  -6.326  165.9860  704.3135  -6.331       56.95 0.437
   50.6778  779.1694  -7.945   41.1781  704.9946  -7.951      224.07 0.139
  990.4131  837.4882 -10.108  988.2520  704.6802 -10.105     1622.23 0.035
  323.0026  796.6753  -7.773  316.1265  705.4866  -7.777      166.22 0.204
  783.2928  826.7895  -6.775  779.9432  706.9049  -6.775       76.88 0.328
  427.1041  806.0805  -7.482  421.1155  708.3912  -7.484      136.34 0.131
   28.9545  781.5823  -6.697   19.2130  708.7613  -6.703       60.32 0.384
  106.7903  786.3626 -10.035   97.8426  708.6874 -10.040     1528.91 0.038
  210.2310  792.8824  -8.006  202.2955  708.7425  -8.010      213.27 0.200
  969.2419  839.8861  -6.201  966.9590  708.3967  -6.198       34.97 0.468
  582.2798  817.1315  -6.579  577.5016  709.7604  -6.581       71.91 0.420
  941.7534  840.0978  -7.595  939.3168  710.3239  -7.593      142.03 0.182
  318.5212  801.9404  -9.933  311.5753  711.0384  -9.937     1301.68 0.041
  494.2333  813.0098  -7.056  488.7732  711.1337  -7.058       85.09 0.248
  718.7552  826.7421  -9.463  714.9752  710.8823  -9.463      914.67 0.094
  345.9055  804.8931 -12.097  339.1978  712.2812 -12.101     9986.04 0.023
  597.4477  819.7511  -8.472  592.7746  711.4345  -8.474      323.20 0.117
  792.9206  832.4917  -9.542  789.6119  712.0061  -9.541      887.66 0.072
  448.5457  812.0567  -7.464  442.7104  713.0336  -7.467      145.04 0.277
  487.7850  814.7351  -6.923  482.2638  713.2632  -6.925       81.87 0.398
  293.0505  803.3108  -8.489  285.8586  714.0039  -8.493      381.02 0.136
  575.5752  823.3785  -8.893  570.7170  716.4297  -8.894      450.02 0.085
  563.9720  824.1276  -9.256  559.0195  717.9039  -9.258      807.56 0.067
  849.6163  842.3903  -7.253  846.6275  718.3670  -7.252      108.10 0.262
  197.8523  802.5238  -8.277  189.7397  719.1732  -8.282      275.60 0.149
  255.3101  805.7806  -7.748  247.7443  718.8385  -7.752      151.47 0.393
  221.8848  804.4765  -7.921  213.9999  719.6245  -7.925      219.10 0.145
  472.5052  820.0902  -8.521  466.8322  719.5776  -8.524      338.28 0.091
  569.6732  827.8607  -8.175  564.7487  721.2834  -8.176      230.55 0.183
  604.7284  829.9914  -7.678  600.0660  721.2254  -7.679      177.82 0.210
  766.9636  839.7236  -7.539  763.4584  720.8570  -7.539      120.06 0.278
  983.0125  853.5307  -8.743  980.7612  721.1723  -8.741      435.05 0.078
  545.8124  826.9736  -6.807  540.7029  721.8865  -6.808       76.19 0.435
  663.8268  834.3083  -6.440  659.5874  721.8529  -6.441       54.70 0.386
  950.8475  852.7221  -6.801  948.4209  722.3730  -6.799       70.61 0.328
  644.9268  834.4424  -8.954  640.5478  723.1675  -8.955      486.72 0.100
  677.9109  835.6231  -6.615  673.7682  722.2886  -6.615       52.37 0.353
  493.5836  827.1502  -8.675  488.0515  725.3268  -8.677      397.20 0.088
  697.1301  840.3516  -8.367  693.1056  725.8181  -8.367      330.42 0.101
  514.8674  829.8401  -7.923  509.4962  726.6889  -7.925      192.35 0.169
  199.0439  811.3051  -8.192  190.8938  727.8937  -8.197      265.91 0.117
  451.5406  826.8354  -9.858  445.6593  727.6395  -9.861     1174.67 0.032
  586.5327  835.8278  -7.503  581.7042  728.2021  -7.505      119.26 0.310
  709.0233  843.7835  -8.217  705.1086  728.5344  -8.218      244.52 0.102
  149.2233  810.6109  -7.384  140.5735  730.3203  -7.389      108.77 0.190
  171.0248  811.3176 -10.749  162.5932  729.6620 -10.754     2409.86 0.083
  959.4186  860.5164  -7.076  957.0148  729.6274  -7.073       83.52 0.257
  209.2152  815.0439  -8.423  201.1456  731.0015  -8.428      349.95 0.092
  292.5797  820.1692  -8.693  285.2925  730.9146  -8.697      442.82 0.062
  778.3758  851.2579 -10.649  774.9022  731.6793 -10.649     2689.79 0.031
 1011.1143  866.1889  -8.800 1008.9741  732.0686  -8.797      486.27 0.108
  423.6205  830.4777  -6.857  417.4828  733.0312  -6.860       69.13 0.480
   27.0775  806.6899  -7.207   17.1607  734.0365  -7.213      102.64 0.305
  193.5071  817.1831  -7.230  185.2686  734.1283  -7.235      102.15 0.253
  665.4241  846.1090  -7.294  661.1469  733.5581  -7.295      114.59 0.216
   76.5669  810.8919 -10.386   67.1543  735.1571 -10.392     2127.92 0.037
  245.1504  820.9928  -8.252  237.4023  734.7092  -8.257      272.88 0.105
  642.0113  846.4468 -10.287  637.5594  735.3594 -10.288     1751.80 0.046
  395.6886  832.8212  -7.237  389.2908  737.1263  -7.240      122.42 0.209
  467.8383  837.3443  -8.499  462.0440  737.1401  -8.501      387.60 0.100
  929.2351  865.5587  -6.642  926.6428  736.5537  -6.640       57.77 0.299
  674.8513  852.4409  -7.175  670.6165  739.3031  -7.176       93.27 0.304
   61.1753  815.2995  -6.373   51.5708  740.5393  -6.380       43.70 0.491
   85.3654  817.4546 -10.897   76.0076  741.1813 -10.903     3445.36 0.037
  459.3042  840.7693  -8.858  453.4217  741.1023  -8.860      503.18 0.092
   99.6823  819.5167  -9.304   90.4643  742.3493  -9.310      627.09 0.072
  337.5889  836.5314  -9.056  330.6393  744.4805  -9.059      479.61 0.092
  512.3400  848.2103  -6.965  506.8629  745.2333  -6.967       77.65 0.330
  644.9028  856.7065 -11.261  640.4290  745.4430 -11.263     6204.65 0.465
  787.8264  865.9243  -6.528  784.3596  745.7560  -6.528       46.79 0.478
  419.1383  844.5558  -8.236  412.8919  747.4059  -8.239      263.85 0.156
  823.7399  869.3847  -8.228  820.4923  746.9724  -8.227      272.35 0.164
  153.4184  828.7034 -10.604  144.7073  748.1830 -10.610     2563.95 0.036
  546.0392  853.2209  -8.644  540.8120  748.1400  -8.646      403.02 0.131
  842.9942  871.1580  -9.625  839.8615  747.5427  -9.624      952.17 0.067
  536.3198  853.8624  -7.460  531.0109  749.3902  -7.461      153.19 0.202
  114.9835  827.8848  -9.915  105.8775  749.7741  -9.920     1395.31 0.045
  222.6409  834.6201  -7.111  214.5957  749.7693  -7.116       88.52 0.259
  891.1029  876.5102  -8.916  888.2471  749.8867  -8.915      523.77 0.105
   44.0942  825.6528 -10.081   34.2415  751.9863 -10.088     1612.99 0.049
  527.2800  855.8817  -7.495  521.8890  751.9767  -7.497      156.75 0.245
   95.6387  829.6211  -6.317   86.3180  752.7278  -6.323       43.94 0.471
  456.0746  852.6487 -10.481  450.1077  753.1961 -10.484     2302.84 0.037
  287.9988  844.2228  -8.182  280.5398  755.2908  -8.186      215.33 0.160
  344.2663  847.0222  -7.532  337.3254  754.5672  -7.536      117.70 0.201
  252.8588  842.5366  -7.698  245.0683  755.8049  -7.703      196.48 0.189
  607.6765  865.4406  -8.114  602.8823  756.5107  -8.115      200.53 0.337
  442.0121  855.4117  -8.853  435.9114  756.8423  -8.856      543.68 0.115
  710.0909  872.0135  -7.966  706.0707  756.7049  -7.966      259.10 0.158
  880.6731  883.4801  -8.748  877.7293  757.5079  -8.747      410.86 0.075
  658.7460  871.3608  -7.877  654.3141  759.2381  -7.878      176.39 0.193
  695.4752  873.6497  -7.141  691.3033  759.2296  -7.142      102.07 0.273
  900.1289  886.4180 -10.912  897.2935  759.2276 -10.910     3311.46 0.023
   69.7409  835.3703 -10.453   60.1082  760.1147 -10.459     2200.01 0.154
  344.1203  853.5916  -6.303  337.1444  761.1550  -6.307       51.72 0.433
  722.6206  876.7958  -9.611  718.6693  760.7049  -9.612      925.35 0.066
  732.6268  877.4683 -12.457  728.7425  760.7519 -12.457    14274.45 0.021
  785.2497  882.3006  -7.696  781.7037  762.2943  -7.695      135.16 0.184
  413.7517  859.7016  -7.042  407.3825  762.9075  -7.045       88.31 0.465
  572.9141  869.4366  -7.958  567.8298  762.6858  -7.960      195.47 0.157
  948.4056  893.3962  -7.493  945.8318  763.1827  -7.491      172.64 0.256
  424.6077  862.2683  -6.707  418.3226  764.7968  -6.710       91.61 0.445
  256.2735  852.5127  -8.602  248.4624  765.5838  -8.607      316.64 0.136
  471.1152  866.7905  -8.217  465.2084  766.4115  -8.220      242.05 0.120
  817.2535  887.7179 -10.599  813.8967  765.7109 -10.599     2674.51 0.031
  956.1969  896.3756  -6.022  953.6581  765.6737  -6.020       30.08 0.455
   85.1887  842.9896  -7.689   75.6768  766.7805  -7.695      148.61 0.245
  853.7443  891.7969  -7.623  850.6043  767.5082  -7.622      146.87 0.232
  937.4408  896.3022  -8.076  934.7936  766.7744  -8.074      250.39 0.129
  146.2354  848.1440 -10.183  137.3377  768.1126 -10.188     1693.39 0.047
  393.2942  863.4217 -15.012  386.7220  767.9151 -15.016  1002177.81 0.000
  699.7430  884.5955  -7.099  695.5575  769.9128  -7.100       94.00 0.343
  197.6254  854.4577  -9.653  189.2174  771.2124  -9.658     1029.83 0.049
  896.2266  897.7741  -8.123  893.3283  770.8263  -8.122      257.68 0.163
  270.9288  859.6068  -6.315  263.2227  771.7706  -6.320       51.58 0.469
  738.7403  889.0159  -8.046  734.8528  771.9202  -8.047      257.05 0.143
  998.0701  905.0514 -10.090  995.7385  771.7264 -10.088     1475.87 0.097
  688.4217  886.8854  -9.657  684.1445  772.9125  -9.658     1135.24 0.047
  486.2481  874.9161 -10.096  480.4305  773.5981 -10.098     1407.10 0.054
   74.7248  850.5669 -11.319   65.0549  775.0317 -11.325     5419.42 0.029
   98.8927  852.3542  -8.002   89.4718  775.3048  -8.008      189.74 0.149
  213.0630  858.9955  -7.493  204.7858  774.7899  -7.498      141.51 0.224
  402.2314  870.8614 -12.234  395.7032  774.8044 -12.237    11437.11 0.027
  166.6689  857.6415  -9.226  157.9275  776.3464  -9.231      585.06 0.378
  877.1091  901.5718  -8.499  874.0797  775.8210  -8.498      392.06 0.115
  629.2089  887.1878  -7.197  624.4872  776.9238  -7.199       94.24 0.303
  247.5770  864.3436  -8.120  239.6157  777.9814  -8.125      247.43 0.120
  427.3436  876.4890 -10.696  421.0127  778.8643 -10.699     3057.31 0.042
  817.0257  901.7000  -6.338  813.6155  779.7085  -6.338       50.56 0.426
 1007.2886  913.5145  -8.313 1004.9808  779.6097  -8.310      306.67 0.109
   71.9011  856.4283  -9.212   62.1656  781.0837  -9.218      653.68 0.151
  545.7443  887.4275 -10.101  540.3606  782.3944 -10.103     1336.88 0.059
  683.7270  895.2859 -10.715  679.3810  781.6114 -10.716     2501.00 0.048
  183.2078  864.6940  -8.042  174.5955  782.3745  -8.048      191.80 0.134
  461.1213  882.3813  -7.675  455.0549  782.6467  -7.678      180.76 0.150
  475.0543  883.7787  -9.334  469.1003  783.1723  -9.337      770.97 0.269
  703.5026  897.3824 -12.697  699.3330  782.4953 -12.698    14998.07 0.023
  139.4553  863.2485  -6.976  130.3992  783.6745  -6.982       85.15 0.272
  383.5826  878.8778  -8.560  376.8444  784.0022  -8.564      384.70 0.203
   44.3101  858.7221 -12.112   34.2591  785.1168 -12.119    10432.18 0.025
   58.2061  859.0226  -9.198   48.3058  784.5447  -9.205      606.25 0.079
   76.8468  861.0000  -8.564   67.1375  785.3551  -8.570      337.90 0.198
  166.9850  866.7008  -7.647  158.1949  785.4045  -7.653      146.17 0.208
  598.3636  893.6030  -6.961  593.3747  785.2768  -6.963       93.67 0.315
  895.7437  911.6578  -8.063  892.7943  784.7393  -8.062      256.06 0.124
  266.6116  873.8417  -6.737  258.7868  786.3016  -6.742       62.28 0.399
  364.6372  880.0037  -8.553  357.7182  786.3190  -8.557      333.80 0.125
  256.7610  873.5149  -6.902  248.8408  786.5929  -6.907       70.66 0.405
  802.8009  909.0308  -9.926  799.2703  787.9310  -9.926     1393.45 0.034
  810.1190  909.3320  -6.684  806.6354  787.7742  -6.684       73.13 0.400
  857.4969  913.1621 -10.451  854.3038  788.6392 -10.450     2140.47 0.029
   18.7036  862.5322  -6.847    8.3515  790.5340  -6.854       69.38 0.359
  331.6232  882.5744  -7.461  324.3807  790.9668  -7.466      145.84 0.246
  879.5691  918.2839  -7.228  876.4963  792.3791  -7.227       93.06 0.411
  205.4174  878.0511  -7.892  196.9555  794.3637  -7.897      174.09 0.175
  796.6882  914.9446 -10.288  793.0948  794.2290 -10.288     1958.27 0.037
  167.9956  875.8237  -7.649  159.1635  794.4833  -7.655      142.50 0.240
  551.0758  900.3610  -7.948  545.6776  795.0064  -7.951      234.79 0.286
   84.2437  872.3266  -9.516   74.5468  796.2430  -9.523      819.84 0.058
  304.4357  886.7524  -7.255  296.9109  796.8596  -7.259      131.60 0.277
  883.3271  922.9380  -8.007  880.2615  796.7979  -8.006      213.52 0.170
   24.1674  870.0479  -8.033   13.8309  797.7253  -8.040      235.82 0.121
  854.0166  922.4179  -7.753  850.7683  798.1140  -7.752      169.18 0.156
  995.9637  931.2848  -7.078  993.5378  798.0847  -7.076       92.53 0.243
  132.5479  878.3194  -8.236  123.3316  799.2126  -8.242      248.05 0.129
  163.8187  882.7756  -7.479  154.9035  801.7129  -7.485      154.84 0.197
  412.0884  898.4895  -6.915  405.5125  801.8531  -6.919       94.70 0.359
  705.7640  917.3056  -8.454  701.5301  802.2871  -8.455      261.79 0.139
  895.5601  928.4754  -8.945  892.5514  801.5689  -8.944      469.99 0.084
  226.1818  888.0449  -7.161  217.8755  803.0727  -7.166       82.22 0.321
  314.8059  893.0832  -9.926  307.3481  802.5499  -9.931     1174.50 0.050
  639.2259  913.3416  -6.720  634.4701  802.4692  -6.722       64.39 0.290
  884.0509  929.4108  -6.214  880.9671  803.2259  -6.213       41.49 0.397
  191.0975  886.5877  -6.282  182.4412  803.8183  -6.287       48.03 0.424
  668.9246  916.4388  -7.498  664.3814  803.7057  -7.499      136.31 0.148
  253.1447  892.0301  -7.968  245.0879  805.3708  -7.973      222.34 0.126
  262.5037  891.9669  -8.894  254.5405  804.7191  -8.899      441.56 0.080
  942.9696  934.8420  -9.323  940.2270  804.9634  -9.321      807.74 0.041
  236.8976  890.9175  -6.926  228.6839  805.2774  -6.931       74.15 0.306
  426.8620  904.3978  -8.852  420.3900  806.8424  -8.856      468.13 0.083
  510.1572  909.3404 -10.021  504.3798  806.5632 -10.024     1327.34 0.055
  731.8031  923.7008  -7.788  727.7297  807.0539  -7.789      166.28 0.247
   52.0112  882.2617 -10.192   41.9024  808.2292 -10.198     1814.12 0.054
  205.6793  891.2781 -10.259  197.1456  807.6019 -10.264     1846.83 0.046
  993.7575  941.3655  -8.308  991.2874  808.3022  -8.306      288.88 0.120
 1009.7402  941.5864  -7.429 1007.3583  807.5207  -7.427      104.87 0.269
  454.8676  908.0881  -7.538  448.6238  808.7797  -7.542      148.42 0.195
  695.7818  923.2328  -9.458  691.4106  808.8196  -9.459      819.30 0.055
  804.8434  930.6272  -8.557  801.2454  809.4057  -8.557      360.55 0.119
  682.1936  923.1272  -6.525  677.7222  809.5665  -6.526       65.27 0.458
  789.6115  929.8346  -8.707  785.9143  809.5674  -8.708      416.02 0.089
  174.7945  892.8477  -6.878  165.9351  811.1171  -6.883       79.06 0.264
  442.0163  909.3474  -6.752  435.6539  810.8477  -6.756       85.40 0.358
  568.8633  917.8251  -7.207  563.5320  811.3726  -7.209      134.86 0.449
  726.3993  926.6634  -8.229  722.2758  810.3567  -8.230      265.86 0.134
  309.9692  903.7196  -7.246  302.4094  813.5096  -7.251       93.39 0.278
  877.2815  939.1561  -7.363  874.1207  813.3973  -7.362      118.92 0.183
  356.1721  907.5857  -9.205  349.0338  814.4778  -9.210      648.27 0.077
  496.6802  916.8165  -7.575  490.7545  814.8948  -7.578      201.45 0.329
  655.0802  926.6681 -10.495  650.3896  814.8117 -10.496     2197.52 0.057
  719.1592  931.2472  -8.486  714.9656  815.3973  -8.487      321.84 0.098
  451.4671  914.9485  -9.378  445.1606  815.8635  -9.382      892.60 0.053
  809.3118  939.4092  -6.081  805.7108  817.9109  -6.081       43.19 0.446
  646.8845  929.9450  -9.694  642.1175  818.6059  -9.696     1065.61 0.043
  409.1129  916.5632  -8.409  402.4206  820.1420  -8.412      312.52 0.098
  657.9226  932.1536  -9.832  653.2308  820.1234  -9.834     1240.31 0.071
  501.8499  923.3255  -7.946  495.9377  821.0878  -7.949      318.47 0.232
  917.8275  949.7144  -7.418  914.8833  821.4136  -7.417      111.46 0.245
  338.5186  913.5613  -9.315  331.1823  821.5739  -9.320      749.13 0.057
  701.6153  938.5440  -6.834  697.2250  823.7757  -6.836       64.56 0.368
   34.1713  896.5828  -6.322   23.7793  823.7074  -6.329       51.51 0.423
  665.9352  936.6532  -9.786  661.2856  824.1237  -9.788     1210.94 0.040
  959.2577  954.9714  -9.393  956.5452  824.0719  -9.392      768.84 0.060
  109.4695  902.6066 -10.280   99.8650  825.0088 -10.287     1986.66 0.044
  934.1545  955.5170  -8.218  931.2902  826.1926  -8.217      278.49 0.183
  116.7442  904.6681  -7.878  107.2056  826.6175  -7.884      189.62 0.159
  874.0983  952.0623  -7.772  870.8717  826.5062  -7.772      166.47 0.119
  893.3296  953.8110  -8.281  890.2191  827.0483  -8.280      305.48 0.139
  984.9927  959.6561  -9.776  982.4149  827.1421  -9.775     1094.96 0.041
  648.8318  939.0229  -6.742  644.0415  827.5698  -6.743       76.98 0.348
   94.3278  905.6738  -8.528   84.5417  829.0367  -8.534      319.56 0.306
  670.5211  941.6572  -9.444  665.8855  828.8441  -9.445      905.80 0.062
  974.3940  960.3160  -8.491  971.7529  828.4672  -8.490      281.36 0.191
   84.0186  906.0316  -8.365   74.1182  830.0445  -8.371      339.76 0.101
  467.9819  930.6914  -7.089  461.7441  830.5921  -7.093      144.56 0.297
  100.8770  908.8868  -7.997   91.1428  831.8456  -8.004      248.30 0.129
  211.1941  915.8244  -8.088  202.5793  831.8553  -8.094      222.21 0.183
  244.5962  918.0120  -8.744  236.3116  831.9443  -8.749      458.38 0.075
  314.9300  922.3031  -8.713  307.3216  831.8161  -8.718      450.79 0.086
  605.8151  940.8293  -7.776  600.6802  832.0806  -7.778      200.57 0.174
  433.8317  931.0178  -9.397  427.2914  833.0658  -9.401      827.77 0.055
  761.7218  951.8449 -12.076  757.7487  833.3376 -12.076     9548.77 0.029
  155.7065  914.0013  -7.780  146.5267  833.5209  -7.786      146.67 0.187
  712.3544  949.6799  -9.181  708.0375  834.2693  -9.182      608.25 0.103
  803.9970  956.2600  -9.703  800.2972  835.1026  -9.703     1088.42 0.061
  377.6018  930.2453 -10.541  370.5499  835.8293 -10.545     2184.40 0.038
  532.0928  941.1381 -17.901  526.3530  837.0238 -17.903 14256581.00 0.000
  789.5424  957.2461 -10.655  785.7408  836.9962 -10.656     2860.17 0.037
  815.8499  960.4180  -6.543  812.2142  838.5189  -6.544       71.89 0.410
  150.2634  920.2643  -9.848  140.9902  840.1418  -9.854     1286.78 0.064
  505.3148  942.5544  -9.193  499.3427  840.1255  -9.196      559.03 0.368
  183.2773  923.1067  -8.541  174.3329  840.9123  -8.547      364.23 0.088
  228.0780  927.4201  -7.492  219.5727  842.4137  -7.498      105.41 0.250
  286.0636  930.9277  -6.997  278.1259  842.2757  -7.002       76.08 0.303
   62.0018  918.9466  -6.677   51.7820  844.3799  -6.684       80.03 0.409
  414.8062  941.4619 -10.864  408.0427  844.7244 -10.868     3371.81 0.031
  104.4299  923.1216  -8.171   94.6499  845.8929  -8.177      268.23 0.147
  745.6933  964.8071  -8.495  741.5564  847.3146  -8.496      307.85 0.107
  839.6163  971.6785  -6.728  836.0969  848.2934  -6.728       75.74 0.338
   36.2073  922.1571  -6.329   25.6803  849.2244  -6.336       49.93 0.409
  165.9788  930.1762  -8.662  156.8137  849.0885  -8.669      410.28 0.109
  201.4595  931.5096  -6.886  192.6551  848.1904  -6.892       66.29 0.453
  374.8248  943.6011  -7.049  367.6796  849.3845  -7.053       89.80 0.326
  187.4844  932.1454  -6.981  178.5321  849.7079  -6.987       82.11 0.363
  509.7512  953.1414 -10.263  503.7678  850.4490 -10.266     1607.27 0.146
  387.6556  947.5047  -6.786  380.6110  852.4875  -6.790       63.15 0.440
  890.6706  979.9725  -6.832  887.4521  853.3851  -6.831       57.05 0.328
   92.2798  930.3542  -8.071   82.3248  853.9102  -8.078      210.18 0.148
  853.0939  978.0577  -8.641  849.6396  853.8296  -8.641      408.13 0.078
  272.9848  943.8366 -10.595  264.8473  856.0367 -10.600     2606.82 0.071
   78.5514  932.6882  -7.137   68.4319  857.1157  -7.144       80.61 0.299
  291.2638  945.6661  -7.167  283.2998  856.7178  -7.172      107.66 0.212
  664.7108  971.4359  -7.228  659.9073  859.0170  -7.230      117.31 0.299
 1004.7489  992.9690  -8.222 1002.1784  859.2162  -8.220      292.49 0.141
  670.9016  972.8679  -6.719  666.1397  860.0610  -6.720       71.39 0.368
  785.2392  979.3616 -15.094  781.3240  859.3959 -15.094  1076080.12 0.000
  823.4452  982.2034  -7.280  819.7798  859.8395  -7.280      120.17 0.237
  874.5913  985.5129  -7.253  871.2496  859.9383  -7.253      130.81 0.166
  286.4963  949.1501  -8.232  278.4662  860.5101  -8.237      224.53 0.150
  388.3434  957.6528  -9.238  381.2544  862.6115  -9.242      691.01 0.075
  324.5129  954.8012  -6.914  316.8291  863.7765  -6.919       84.65 0.300
  705.2818  979.7600  -7.571  700.7914  864.8190  -7.572      170.44 0.139
  824.1023  988.1501  -6.968  820.4194  865.7486  -6.969      102.22 0.294
  126.5398  945.8612  -8.828  116.8648  867.2992  -8.835      464.20 0.056
  889.5661  993.2919  -9.630  886.2942  866.7798  -9.630      982.28 0.082
  242.5684  953.4242  -7.693  234.0689  867.5647  -7.698      155.27 0.207
  501.0892  970.0979  -9.001  494.9527  867.9771  -9.004      758.45 0.405
  585.7069  975.1836  -9.570  580.2597  867.7418  -9.573      911.78 0.171
  183.0323  951.1700  -7.202  173.9253  869.0606  -7.208      112.13 0.263
  232.5800  954.1426  -7.086  223.9733  868.9152  -7.092       99.26 0.361
  102.0616  947.0590  -9.805   92.1143  870.0436  -9.812     1275.99 0.130
  271.4115  957.2533  -7.504  263.1861  869.5830  -7.509      132.59 0.256
  374.7463  964.5501  -8.636  367.4947  870.3793  -8.640      309.85 0.101
  496.1866  973.2213  -8.499  489.9931  871.4143  -8.502      303.78 0.456
  688.6501  984.8105  -9.188  683.9745  870.8994  -9.190      717.87 0.062
  882.9001  997.0709  -6.950  879.5718  870.9798  -6.949       76.23 0.317
  192.9432  954.5816  -6.505  183.9200  871.8562  -6.511       53.40 0.434
  847.7422  996.2090 -11.423  844.1873  872.3272 -11.424     5263.91 0.028
   32.6627  945.2663  -8.581   21.9639  872.6159  -8.588      357.66 0.183
  825.0339  995.1246  -6.995  821.3315  872.6692  -6.996       81.93 0.351
 1004.0940 1006.7939  -6.605 1001.4764  873.0851  -6.604       57.33 0.414
   23.9451  945.8986  -8.524   13.1424  873.8002  -8.531      403.04 0.136
  101.0156  952.0761 -10.221   91.0271  875.1406 -10.228     1787.41 0.071
  932.5634 1004.3030  -9.837  929.5259  875.0927  -9.837     1152.35 0.059
  980.5619 1008.2561  -8.470  977.8032  876.0297  -8.468      340.71 0.095
  140.6932  956.6231  -8.947  131.1073  877.1976  -8.954      546.16 0.069
  426.0273  974.6554  -7.214  419.2029  877.2719  -7.218       91.57 0.280
  912.2044 1005.1030 -10.322  909.0364  877.1733 -10.322     2079.69 0.043
  109.0756  955.1939  -7.698   99.1566  877.7587  -7.705      174.82 0.178
  743.0804  995.5235 -10.581  738.8040  878.2208 -10.583     2584.28 0.039
  878.4111 1003.4668  -6.768  875.0311  877.6614  -6.768       55.80 0.367
   85.1708  955.1502  -7.769   74.9900  879.2228  -7.776      190.86 0.170
  523.9546  982.5443  -8.914  517.9570  879.0032  -8.917      606.19 0.083
  667.3711  990.9711  -8.156  662.5069  878.4068  -8.158      216.91 0.144
  276.6637  967.8924  -6.441  268.4345  879.9154  -6.446       48.09 0.443
  307.1226  970.1741  -8.119  299.1879  880.2797  -8.124      204.87 0.154
  421.0420  976.8242  -6.524  414.1612  879.7591  -6.528       56.20 0.335
  759.7163  997.8599  -8.524  755.5503  879.5131  -8.525      307.24 0.135
  698.1866  995.3715 -10.741  693.5402  880.8714 -10.743     2683.16 0.041
  928.8006 1010.2274  -7.809  925.7198  881.2565  -7.808      172.25 0.195
 1010.5911 1014.8983  -6.741 1007.9852  880.7822  -6.739       78.87 0.301
  282.7783  971.3522  -7.406  274.5927  882.9973  -7.412      133.67 0.222
  171.6252  966.4000  -6.341  162.3115  885.0499  -6.347       50.39 0.449
  382.8291  980.7001 -10.402  375.5725  886.0527 -10.406     2012.30 0.040
  424.4718  982.8470  -8.105  417.5929  885.5775  -8.110      223.37 0.157
  496.7694  988.2244  -7.923  490.5109  886.4063  -7.927      186.54 0.169
  241.9669  972.4787  -8.675  233.3565  886.7038  -8.681      404.78 0.083
  520.0637  990.2778  -8.751  513.9973  886.9946  -8.754      485.80 0.140
  794.9292 1008.0493  -7.500  790.9724  887.4967  -7.501      159.75 0.338
  104.0531  964.9931  -9.222   94.0214  887.9023  -9.229      726.14 0.073
  662.4861 1001.4669  -6.838  657.5403  889.2231  -6.840       64.84 0.444
  604.0767  998.3616  -8.795  598.6783  889.7949  -8.798      512.03 0.107
   40.9199  964.0796  -8.317   30.1907  890.9708  -8.324      282.40 0.171
  833.4312 1014.2403 -12.443  829.7151  891.2707 -12.443    12456.43 0.114
  470.0927  991.6694  -6.428  463.5828  891.5397  -6.432       60.16 0.420
  583.4980  999.3743  -8.381  577.9263  892.1064  -8.384      301.97 0.332
  617.3183 1001.3629  -6.779  612.0144  891.9658  -6.781       93.56 0.320
  977.1121 1023.9725  -9.347  974.2824  891.9692  -9.346      770.85 0.059
  808.3153 1014.0470 -10.202  804.4286  892.6573 -10.203     1580.85 0.075
  602.2561 1003.0421  -8.680  596.8225  894.5970  -8.682      413.64 0.148
  697.7029 1009.1146 -10.243  692.9970  894.6608 -10.245     1880.13 0.042
  968.7477 1026.2141  -7.446  965.8603  894.7381  -7.445      127.32 0.416
  336.2413  987.3891  -7.565  328.5036  895.6959  -7.570      138.01 0.213
  351.3974  988.4160  -6.680  343.8015  895.7685  -6.685       74.11 0.383
  303.3521  986.3735  -7.123  295.2949  896.7546  -7.128       81.02 0.264
  753.1979 1014.3364  -6.789  748.9209  896.4154  -6.790       79.31 0.337
  768.4532 1015.4033  -7.588  764.2817  896.5232  -7.589      137.42 0.200
  801.5527 1018.0688 -13.145  797.6042  897.1081 -13.146    24684.74 0.087
  312.4369  988.1788  -7.353  304.4613  897.9901  -7.359      111.62 0.223
  573.3763 1004.9801  -7.508  567.6957  898.3592  -7.511      161.00 0.200
  983.6260 1030.3838  -8.678  980.8147  897.9735  -8.677      419.79 0.136
  102.4132  975.4464  -9.690   92.3016  898.4893  -9.697      900.39 0.088
  786.3469 1018.9926 -10.499  782.2885  898.9897 -10.500     2420.68 0.040
  452.0043  998.6927  -9.670  445.2985  899.7175  -9.674     1052.10 0.052
  266.4289  987.7619  -9.906  257.9883  900.4796  -9.912     1255.66 0.047
  946.4764 1031.3297 -10.884  943.4354  901.2578 -10.883     2932.29 0.030
  990.2309 1033.8174  -7.565  987.4476  900.9919  -7.564      125.59 0.174
   60.1161  975.8456  -9.255   49.5322  901.5603  -9.263      619.86 0.069
  128.5767  981.0351  -6.776  118.7178  902.4424  -6.783       57.29 0.349
  390.6074  997.2054  -8.372  383.3415  902.1022  -8.377      321.14 0.122
  278.4324  992.6866  -7.076  270.0887  904.6579  -7.082       94.77 0.277
  327.0159  996.2065  -9.272  319.1425  905.1161  -9.277      777.18 0.058
  935.1917 1034.3170  -8.397  932.0702  904.9572  -8.396      371.90 0.119
  797.2326 1026.1874 -11.220  793.2233  905.5061 -11.221     4049.86 0.031
  826.7583 1028.8216  -8.659  822.9434  906.2839  -8.659      399.30 0.115
  139.4712  985.9177  -6.755  129.7016  906.6512  -6.762       65.50 0.379
  431.5409 1004.4205  -7.071  424.6209  906.7485  -7.075       84.48 0.305
  451.6755 1005.4247  -8.685  444.9342  906.4837  -8.689      365.82 0.242
  533.4029 1010.6605 -10.332  527.3578  906.5710 -10.335     1780.64 0.041
  339.0824 1000.5930 -10.291  331.3045  908.7508 -10.296     1890.17 0.040
  471.1655 1008.7061  -7.789  464.5840  908.5411  -7.793      161.68 0.193
  444.1594 1008.7963  -9.762  437.3335  910.3366  -9.766      997.28 0.045
  871.9254 1035.2883  -6.349  868.3899  909.9127  -6.349       47.87 0.459
  240.7965  996.8711  -7.383  232.0489  911.2308  -7.389      106.07 0.283
  685.3869 1024.8365  -6.542  680.5275  911.1804  -6.545       53.55 0.448
  766.2258 1029.6099  -8.461  761.9833  910.8845  -8.462      343.92 0.114
  953.5158 1041.1049  -7.701  950.4863  910.5956  -7.700      145.25 0.195
  598.8142 1020.4776 -10.257  593.3063  912.2805 -10.260     1641.24 0.071
  620.4479 1021.4966  -7.021  615.1103  911.9363  -7.024       96.57 0.319
  699.3586 1027.3756  -9.392  694.6191  912.8480  -9.394      788.32 0.072
   67.6000  990.0024 -11.062   57.0606  915.2796 -11.070     3888.15 0.029
  126.3005  992.8287  -8.518  116.3917  914.4043  -8.525      303.62 0.143
  725.9359 1030.9871  -6.549  721.4022  914.7917  -6.551       64.10 0.486
  750.8487 1034.1882 -10.967  746.4854  916.4252 -10.969     2798.73 0.023
  924.3819 1044.4668  -8.290  921.1606  915.7712  -8.289      324.19 0.113
 1008.0579 1049.7292  -9.923 1005.3305  915.7617  -9.922     1292.87 0.059
   36.3239  989.9351  -6.375   25.4315  917.1894  -6.383       45.05 0.401
  106.4887  994.2717  -6.521   96.3552  917.1036  -6.528       47.07 0.452
  408.5661 1012.7058  -8.664  401.4321  916.4888  -8.668      346.13 0.088
  225.0340 1003.1170  -9.399  216.1171  918.4818  -9.405      749.44 0.075
  286.9369 1007.2423  -6.763  278.6390  918.7056  -6.769       74.13 0.340
  579.3190 1025.9514 -13.444  573.6251  918.9931 -13.447    34961.12 0.022
  456.9337 1018.8020  -9.890  450.2137  919.5461  -9.894     1177.36 0.083
  689.1672 1033.5849  -7.257  684.3235  919.7084  -7.259       90.25 0.318
  637.9494 1032.0790  -7.326  632.7088  921.4312  -7.328      107.99 0.206
  875.4790 1046.7599  -7.668  871.9321  921.1494  -7.668      169.17 0.173
  168.2237 1002.6554  -6.609  158.7092  921.6095  -6.616       57.83 0.427
  775.0274 1040.7880 -10.364  770.8126  921.5076 -10.365     1912.29 0.040
  548.1867 1029.8669  -6.652  542.2117  924.8803  -6.655       76.99 0.390
  447.4898 1024.4756  -7.246  440.6573  925.8270  -7.250       86.15 0.463
  628.6108 1036.2478  -7.512  623.2769  926.1959  -7.515      120.10 0.312
  918.5840 1054.5204  -7.090  915.2913  926.1983  -7.090       83.46 0.283
   53.6896 1000.5415  -7.381   42.9295  926.7312  -7.389      110.59 0.304
  155.9293 1007.7890  -6.452  146.2545  927.5349  -6.459       49.41 0.432
  648.6242 1040.9802  -6.977  643.4307  929.6726  -6.980       81.40 0.333
  737.8203 1046.5252  -6.824  733.3115  929.6000  -6.826       62.50 0.406
  164.9042 1012.2000 -10.164  155.3004  931.3912 -10.171     1443.30 0.044
  398.1948 1026.0535  -7.300  390.8961  930.5228  -7.305      124.09 0.310
  716.1668 1046.3949  -8.193  711.4966  930.8365  -8.195      232.27 0.140
   68.2861 1006.6398  -7.527   57.6540  931.9255  -7.534      135.09 0.179
  518.0446 1035.3387  -8.371  511.7852  932.2636  -8.375      300.83 0.126
  118.5647 1011.5728  -9.622  108.4625  933.6931  -9.630      892.39 0.068
  325.3537 1025.1254  -9.022  317.3486  934.2040  -9.028      560.33 0.067
  362.3446 1026.9192  -6.885  354.6954  933.6601  -6.891       85.13 0.291
  793.3421 1054.1361 -10.621  789.2061  933.7158 -10.623     2583.97 0.031
  178.4643 1016.0898  -7.402  168.9832  934.4346  -7.409      137.63 0.316
  597.8490 1043.2835 -10.452  592.2321  935.1850 -10.456     1903.14 0.118
  454.0349 1035.5021  -8.914  447.2084  936.4644  -8.919      474.73 0.083
  533.5384 1041.3893  -7.723  527.3846  937.3488  -7.727      154.78 0.169
  611.3650 1045.1752  -6.676  605.8514  936.2265  -6.679       54.25 0.435
  720.8959 1052.9642  -7.204  716.2343  937.1164  -7.206      111.59 0.195
  375.7631 1032.1766  -7.250  368.2178  938.0805  -7.255      125.39 0.297
  159.0087 1019.0570  -8.099  149.3029  938.6411  -8.107      232.86 0.197
  199.6524 1023.7129  -9.316  190.3531  940.7393  -9.323      673.86 0.100
  829.1047 1064.9175  -9.392  825.1783  942.2524  -9.393      779.59 0.062
  164.1860 1023.3809 -10.589  154.5115  942.6502 -10.596     2183.64 0.036
  232.0428 1027.5680  -7.005  223.0667  942.5559  -7.011       83.65 0.322
  249.6549 1029.4022 -10.422  240.8537  943.2809 -10.429     2171.93 0.040
  522.5003 1046.2726  -6.969  516.2289  942.9378  -6.973       88.36 0.350
  711.8682 1058.9805  -9.835  707.1134  943.7116  -9.837     1255.80 0.052
   38.5922 1018.4325  -7.624   27.5502  945.6361  -7.633      146.81 0.113
  886.2935 1072.4880  -8.627  882.7270  946.2205  -8.627      345.89 0.099
  912.7891 1073.8566  -7.038  909.3924  945.9175  -7.038       95.48 0.374
  970.6428 1077.9350  -9.705  967.5990  946.3473  -9.705      954.49 0.042
  499.3329 1049.2303  -8.003  492.8453  947.3635  -8.007      207.42 0.104
  113.6753 1024.9950  -8.475  103.4408  947.4661  -8.483      278.85 0.123
  308.1408 1037.5868  -6.748  299.8972  947.7874  -6.754       85.08 0.253
  663.4565 1060.6472 -10.615  658.2971  948.4344 -10.618     2242.20 0.027
   27.3360 1022.0965 -10.784   16.1021  950.0006 -10.792     3178.48 0.029
  879.9234 1075.3924  -8.447  876.3040  949.5302  -8.448      284.55 0.111
   50.0669 1024.3022 -10.229   39.1206  950.7987 -10.238     1891.08 0.042
  156.0878 1030.7461  -8.826  146.2842  950.5500  -8.833      451.46 0.114
  315.6721 1042.1887  -8.970  307.4803  951.9247  -8.976      500.33 0.082
  627.7637 1062.2030  -9.674  622.3100  952.2477  -9.677     1037.35 0.047
  246.0063 1038.6089  -8.110  237.1171  952.7441  -8.116      241.69 0.132
  281.8913 1040.8266 -10.493  273.3627  952.6968 -10.499     2158.40 0.033
  441.2851 1051.0039  -6.614  434.2676  952.8057  -6.619       72.09 0.449
  646.3680 1065.2408  -6.711  641.0521  954.1152  -6.714       83.79 0.390
  161.7169 1036.6893  -9.460  151.9404  956.1549  -9.467      892.96 0.057
  454.6224 1055.0587  -8.426  447.7070  956.0276  -8.430      308.76 0.128
  788.2293 1076.2431  -7.553  783.9712  956.1741  -7.555      142.67 0.220
  474.5410 1057.6299  -9.280  467.7932  957.3465  -9.285      717.87 0.075
  880.7496 1082.6884  -7.502  877.1098  956.7821  -7.502      181.70 0.241
  460.1681 1057.3539  -8.333  453.2920  957.9778  -8.337      333.34 0.123
  314.7736 1048.7578  -9.618  306.5381  958.5683  -9.624      814.08 0.064
  547.4777 1064.0338 -10.294  541.3407  959.1568 -10.298     1830.77 0.048
  691.9988 1073.8812  -6.937  687.0084  959.8865  -6.939       89.09 0.336
  581.8767 1068.0246  -7.472  576.0159  960.9804  -7.476      142.58 0.198
  722.3322 1077.4123  -6.687  717.5811  961.5101  -6.689       55.71 0.389
  888.2298 1088.0012 -10.096  884.6213  961.6282 -10.097     1394.19 0.052
  466.6342 1063.7064  -7.010  459.7862  963.9363  -7.015       91.28 0.355
  249.7278 1050.5473 -10.414  240.8130  964.4807 -10.421     1946.87 0.055
  456.6084 1063.8356  -9.417  449.6688  964.6993  -9.421      814.83 0.061
  783.4963 1085.0399  -9.298  779.1697  965.2824  -9.300      692.99 0.079
  422.2348 1063.0529  -7.278  414.9821  966.0876  -7.283      114.36 0.261
  181.0520 1049.9313 -10.592  171.4095  968.2128 -10.599     2221.56 0.034
  400.0341 1063.7873  -8.591  392.5648  968.2313  -8.597      330.51 0.122
  570.3998 1074.0489  -8.962  564.4144  967.7423  -8.966      481.88 0.155
  713.4463 1082.9793  -7.849  708.6042  967.6478  -7.851      171.76 0.190
  257.7230 1055.9539  -7.303  248.8628  969.3966  -7.309       93.01 0.336
 1007.0793 1103.0451  -7.289 1004.1777  969.1750  -7.288      110.13 0.266
   59.7988 1043.6574  -8.052   48.8461  969.6026  -8.060      226.44 0.154
  877.8876 1095.9048  -7.111  874.1813  970.1949  -7.111       93.30 0.341
  476.1779 1071.0322  -9.579  469.3810  970.6758  -9.584      888.10 0.051
  726.4716 1086.7043  -7.818  721.7139  970.5551  -7.821      177.27 0.152
  844.8583 1094.3812  -9.477  840.9317  970.7574  -9.478      924.46 0.064
  502.8290 1073.8702  -6.416  496.2567  971.8356  -6.420       59.39 0.407
  608.8451 1080.7837  -8.158  603.1541  972.0585  -8.162      229.26 0.227
  752.4562 1090.0090  -8.015  747.8812  972.2216  -8.017      227.90 0.150
   68.0989 1047.9838  -9.238   57.2150  973.4176  -9.247      648.30 0.089
   77.0724 1049.0694  -9.028   66.2844  973.9379  -9.036      582.67 0.101
  237.4164 1058.8141  -7.428  228.3272  973.5514  -7.434      112.93 0.277
  678.1347 1086.9820  -8.700  672.9802  973.8858  -8.703      345.75 0.284
   30.0254 1047.0123  -7.385   18.6768  974.8318  -7.393      139.99 0.229
  785.7053 1094.9772  -8.809  781.3561  975.0945  -8.811      382.85 0.259
   19.8237 1046.9006  -8.778    8.3555  975.3668  -8.786      389.95 0.112
  838.7465 1099.8328  -7.565  834.7573  976.6026  -7.566      129.66 0.283
   69.4904 1054.4091  -7.690   58.5837  979.7767  -7.698      124.91 0.447
  199.2522 1062.8419  -7.216  189.7331  980.0097  -7.223       94.36 0.298
  360.5651 1072.6626 -12.834  352.6645  979.6332 -12.840    18980.64 0.021
  618.3401 1089.0601  -8.868  612.6916  979.7502  -8.871      513.81 0.126
  985.3303 1112.0349  -7.398  982.2667  979.5490  -7.398      126.09 0.255
  947.0169 1111.3976  -8.142  943.7137  981.3340  -8.142      221.20 0.123
  958.2857 1111.7151 -11.396  955.0534  980.9393 -11.396     5835.00 0.034
  535.3511 1086.6286 -11.194  529.0049  982.5660 -11.198     4305.29 0.023
  754.9740 1101.8149  -7.199  750.3707  983.8869  -7.201       98.90 0.215
  145.6236 1065.5537 -10.352  135.5071  986.1304 -10.360     1898.70 0.055
  426.1337 1082.9534  -8.653  418.8202  985.7912  -8.659      457.51 0.120
  480.5859 1086.3823 -11.763  473.7558  985.7832 -11.768     7690.53 0.022
  621.4350 1095.3848  -9.615  615.7845  985.8913  -9.619     1037.54 0.078
  940.3206 1115.6032  -8.233  936.9601  985.9678  -8.234      272.61 0.114
  522.4862 1090.6188 -10.574  516.0092  987.3787 -10.578     2375.70 0.035
  569.6316 1093.7003  -7.382  563.5511  987.4827  -7.386       99.05 0.316
  706.4738 1101.8564  -8.157  701.4994  986.9979  -8.160      218.21 0.135
  159.5997 1068.4152  -7.866  149.6205  988.1147  -7.874      170.59 0.190
  464.3943 1087.4978  -9.274  457.4120  987.9259  -9.279      711.31 0.082
  593.5803 1096.1167  -9.362  587.6932  988.3880  -9.365      683.78 0.066
  399.9854 1083.9721  -7.099  392.4151  988.4716  -7.105       88.75 0.350
  697.8946 1103.5866  -7.666  692.8262  989.2697  -7.669      154.98 0.221
  920.6497 1118.7438 -10.613  917.1499  990.3567 -10.614     2300.51 0.073
   63.9557 1065.6273  -6.798   52.9176  991.3853  -6.807       74.91 0.329
  278.6052 1079.0283  -7.601  269.8387  991.2153  -7.608      149.73 0.187
  434.5225 1089.6670  -9.159  427.2544  991.9911  -9.164      662.16 0.089
  606.8179 1100.3350  -8.477  601.0237  991.7768  -8.480      379.12 0.078
  753.5712 1109.4911  -6.740  748.9267  991.6644  -6.742       69.52 0.490
   87.7893 1068.3457  -6.176   77.0080  992.6007  -6.185       38.63 0.408
  748.8083 1111.0423  -6.734  744.1216  993.5197  -6.737       68.32 0.439
  872.4442 1118.0139 -10.258  868.6215  992.6770 -10.259     1725.48 0.038
  107.1570 1070.6458  -8.708   96.5817  993.6798  -8.716      382.35 0.101
  653.4668 1105.4965  -8.093  648.0354  993.9952  -8.096      267.94 0.155
  219.1424 1079.1748  -9.938  209.7476  995.1323  -9.945     1357.69 0.050
  555.7481 1099.9259  -7.673  549.5193  994.6008  -7.677      153.26 0.224
  209.4125 1079.1810 -10.735  199.9130  995.7556 -10.743     2925.93 0.036
  243.7357 1081.9326 -11.027  234.5880  996.3391 -11.034     3300.68 0.035
  393.5266 1091.2933  -8.897  385.8567  996.2223  -8.903      509.89 0.093
  568.8317 1102.5829 -10.941  562.7042  996.4350 -10.945     3145.44 0.030
  593.0152 1103.9567  -9.236  587.0885  996.2800  -9.239      710.49 0.070
  259.6806 1084.1968  -6.816  250.6888  997.5991  -6.823       62.54 0.471
   38.1655 1071.1985  -8.196   26.7936  998.6137  -8.205      274.76 0.104
  896.7066 1126.7782 -10.088  893.0187  999.9170 -10.089     1721.87 0.042
  922.9742 1128.4834  -7.201  919.4563  999.9613  -7.202       94.46 0.372
  715.3260 1116.3587  -7.142  710.3605 1000.9656  -7.145       94.74 0.243
   45.5031 1074.8172  -7.541   34.1948 1001.7797  -7.550      162.02 0.181
  854.8511 1126.5653  -9.050  850.8759 1002.3540  -9.051      557.88 0.081
 1003.7423 1135.5177  -9.555 1000.7174 1001.8892  -9.555      931.63 0.073
   75.0167 1077.8965  -8.657   64.0319 1002.9960  -8.666      422.49 0.093
  641.6743 1114.1794 -12.690  636.1091 1003.4420 -12.694    16395.72 0.016
  941.2871 1133.0454  -7.407  937.8741 1003.3695  -7.408      100.86 0.262
   87.3680 1079.9330  -7.261   76.5128 1004.2555  -7.269      119.03 0.359
  502.8259 1105.9365  -6.533  496.1033 1003.9766  -6.538       50.84 0.433
  720.9327 1119.5356  -8.740  715.9977 1003.7931  -8.743      453.06 0.116
  731.8269 1120.7796  -9.785  726.9711 1004.3492  -9.788     1064.71 0.065
  661.6799 1118.0689  -9.438  656.2614 1006.0721  -9.441      865.66 0.073
  351.6603 1099.5057 -10.136  343.5329 1007.1166 -10.142     1491.53 0.046
   46.5355 1081.0541  -7.122   35.2010 1007.9739  -7.131      112.00 0.419
  121.4280 1085.6803  -7.372  110.9256 1007.8603  -7.380      141.27 0.226
  320.2258 1097.8312  -6.287  311.7875 1007.4342  -6.294       44.00 0.363
  388.7200 1102.5463  -8.968  380.9464 1007.8117  -8.973      555.73 0.119
  904.0822 1134.2350  -6.496  900.4180 1006.9169  -6.496       43.65 0.479
 1003.5200 1141.3865  -8.478 1000.4751 1007.7783  -8.478      293.76 0.163
  549.0170 1114.2476  -7.620  542.6642 1009.3812  -7.625      138.54 0.223
  143.9676 1089.1639  -7.321  133.6973 1009.9247  -7.329      127.03 0.329
  216.3440 1094.0079  -7.405  206.8379 1010.1900  -7.413      118.33 0.243
   81.1675 1086.7366  -8.257   70.2004 1011.4773  -8.265      273.49 0.136
  532.3753 1115.7849  -7.896  525.8688 1011.9768  -7.901      237.37 0.209
  644.6207 1123.2849 -10.077  639.0405 1012.3793 -10.080     1464.29 0.091
  872.8380 1137.6378  -6.912  868.9476 1012.3039  -6.913       73.53 0.429
  356.4736 1105.6144  -8.235  348.3632 1012.9372  -8.241      293.82 0.145
  591.4395 1120.5852 -12.173  585.4254 1013.0442 -12.177    10270.74 0.022
  133.0105 1092.1470 -10.205  122.6007 1013.6140 -10.214     1617.86 0.053
  920.6110 1142.4944  -9.981  917.0293 1014.1404  -9.982     1472.68 0.058
  473.8433 1115.1413 -10.479  466.8151 1015.0405 -10.484     2437.74 0.043
  539.0632 1119.0503  -7.701  532.6006 1014.8261  -7.706      163.31 0.166
  721.9280 1132.2537  -9.384  716.9484 1016.4717  -9.387      722.71 0.071
  943.2244 1145.8933  -7.179  939.7808 1016.1109  -7.179      118.80 0.246
  270.7109 1104.1759  -8.223  261.7273 1016.9404  -8.230      269.78 0.134
  221.3626 1102.0400  -6.718  211.8666 1017.9297  -6.725       79.74 0.394
  671.7903 1130.6780  -8.345  666.4000 1018.0658  -8.348      287.24 0.137
  582.2711 1125.5625 -10.112  576.1561 1018.6139 -10.116     1173.21 0.407
#
#....u.... ....v.... ...w... ....X.... ....Y.... ...M... .....p..... ..q..  
#
#  (01)      (02)     (03)     (04)      (05)     (06)      (07)     (08)   
#
