#
#--------------------------------------------
# ARGUMENTS
#--------------------------------------------
#  ARG0000: /g/lu/code/fortran/hst1pass/CODE/hst1pass/hst1pass
#  ARG0001: HMIN=5
#  ARG0002: FMIN=25
#  ARG0003: PSF=/g/lu/code/fortran/hst1pass/LIB/PSFs/STDPSFs/WFC3UV/STDPSF_WFC3UV_F814W.fits
#  ARG0004: GDC=/g/lu/code/fortran/hst1pass/LIB/GDCs/STDGDCs/WFC3UV/STDGDC_WFC3UV_F814W.fits
#  ARG0005: PMAX=99999
#  ARG0006: CMIN=-1.0
#  ARG0007: CMAX=0.1
#  ARG0008: QMAX=0.5
#  ARG0009: PERT=0
#  ARG0010: WCS=MAT
#  ARG0011: ART_UVW=FAKE.UVW
#  ARG0012: SHOW_ART-
#  ARG0013: OUT=uvwXYMpq
#  ARG0016: ../00.DATA/ie8j01xnq_flt.fits
#
#=================================
# WFC3/UVIS POSTFLASH INFO
#
# FLSHCORR: 'COMPLETE'
# FLASHDUR:                  3.9               3.90
# FLASHLVL:                   10              10.00
# FLASHLVL:                   10              10.00
# FLASHCUR: 'LOW    '                           L
# SHUTRPOS: 'B    '                             B
# DARKTIME:            96.707296              96.71
# DARKEST :                                    1.03 2020.20
#
#
#================================
# BASIC STAR-FINDING PARAMETERS
#
# FILENAME: ../00.DATA/ie8j01xnq_flt.fits
#   NAXIS1:  4096
#   NAXIS2:  4096
#
#   CRPIX1:     512.0000000000000000000000
#   CRPIX2:     511.0000000000000000000000
#   CRVAL1:     271.4793617729699803930998
#   CRVAL2:     -30.3369437301169995180317
#    CD1_1:       0.0000075969050041170608
#    CD1_2:       0.0000080216305677613700
#    CD2_1:       0.0000080216305677613700
#    CD2_2:      -0.0000075969050041170608
#
#     HMIN:          5
#     PMAX:      99999.0
#     FMIN:         25.0        25.0
# HISTMODE:          7.8
# HIFLAG  :      64000
# HIFLAG_I:      64000
# LOFLAG_I:        -50
# DOAPPHOT:          F
#      PID:      16067
#     FILT:      F814W
#    EXPTI:         87.0000
#    EXPTE:         87.0000
#     rDAT:       2020.19906235
#  TIMESTR:      '15:47:32'
#  DATESTR:      '2020-03-13'
# APERTURE:      'UVIS2-C1K1C-SUB '
#     GAIN:          0.00
#
#  PSF_INP: /g/lu/code/fortran/hst1pass/LIB/PSFs/STDPSFs/WFC3UV/STDPSF_WFC3UV_F814W.fits
#  PSF_USE: /g/lu/code/fortran/hst1pass/LIB/PSFs/STDPSFs/WFC3UV/STDPSF_WFC3UV_F814W.fits
#   NPERTs:    0
#
#  GDC_INP: /g/lu/code/fortran/hst1pass/LIB/GDCs/STDGDCs/WFC3UV/STDGDC_WFC3UV_F814W.fits
#
#
#================================
# PSF INFO
#
# PSFFILE_USE: /g/lu/code/fortran/hst1pass/LIB/PSFs/STDPSFs/WFC3UV/STDPSF_WFC3UV_F814W.fits
#
#      CENTRAL PIXEL ARRAY
#                           0000    0682    1365    2048    2731    3413    4096
#                             01      02      03      04      05      06      07
#               4096 08   0.1531  0.1594  0.1651  0.1662  0.1672  0.1688  0.1687
#               3413 07   0.1590  0.1618  0.1645  0.1658  0.1668  0.1677  0.1687
#               2731 06   0.1629  0.1645  0.1651  0.1659  0.1677  0.1684  0.1694
#               2049 05   0.1632  0.1655  0.1663  0.1663  0.1686  0.1697  0.1700
#               2048 04   0.1623  0.1666  0.1690  0.1680  0.1692  0.1719  0.1743
#               1365 03   0.1644  0.1668  0.1668  0.1673  0.1716  0.1733  0.1736
#               0682 02   0.1648  0.1656  0.1645  0.1696  0.1791  0.1741  0.1704
#               0000 01   0.1629  0.1640  0.1643  0.1746  0.1842  0.1734  0.1678
#
#
#=================================
# FRAME INFO
#
#      WCSMODE: MAT
#
#  WCSMODE: MAT
#    MFILE: ie8j01xnq_mat.UVuvWw
#    NMATs:   254
#       AB:     1.000012   -0.000005
#       CD:     0.000040    0.999953
#        1:   515.93  629.28
#        2:   517.94  634.95
#       ZP:    -0.00
#
#
#        INST1:        512.00      0.00000760  0.00000802       271.4793618  18:05:55.04
#            2:        511.00      0.00000802 -0.00000760       -30.3369437 -30:20:12.99       39.773
#        -----     ----------     ----------- -----------      ------------ ------------     ---------
#        FRAME         CRPIX         CD_1        CD_2           RADEC(DEG)  RADEC(SEXIG)     (mas/pix)
#        -----     ----------     ----------- -----------      ------------ ------------     ---------
#        DEST1:         -0.00     -0.00000000 -0.00000000        -0.0000000  00:00:00.00        0.000
#            2:         -0.00     -0.00000000 -0.00000000        -0.0000000 -00:00:00.00
#
#
# ARTSTARS:     1
#   ASTYPE:   UVW
#  ARTFILE: ie8j01xnq_art.xymnfo
#
#  MATFILE: ie8j01xnq_mat.UVuvWw
#    NMATs:   254
#       AB:     1.000012   -0.000005
#       CD:     0.000040    0.999953
#        1:   515.93  629.28
#        2:   517.94  634.95
#       ZP:    -0.00
#
#=======================================
# FINDING STATISTICS
#
#  WHY    NPIX      %PIX   EXPLANATION
#  --- --------  -------   -------------
#   1 15657035   93.323%   ..1..not on chip....
#   2   939898    5.602%   ..2..not loc max....
#   3    87731    0.523%   ..3..h < hmax.......
#   4     3392    0.020%   ..4..flux too low...
#   5        0    0.000%   ..5..below mask thr.
#   6        0    0.000%   ..6..out of bounds..
#   7        0    0.000%   ..7..loflag issues..
#   8        0    0.000%   ..8..saturated......
#   9        2    0.000%   ..9..not contig sat.
#  10        0    0.000%   .10..not loc sat max
#  11        0    0.000%   .11..sat weirdness..
#  12     4044    0.024%   .12..pk but not qsel
#  13     1446    0.009%   .13..pk too peaky...
#  14        0    0.000%   .14..satd CR........
#  15     1842    0.011%   .15..good unsat.....
#  16        6    0.000%   .16..good satd......
#
#
#=======================================
# LUMINOSITY FUNCTION EXTRACTED
#
#    MAG   LFe    CUMe      LFe/s CUMe/s
#-------- -----  ------   ------- ------
# LF -18      1      1          0      0
# LF -17      0      1          0      0
# LF -16      0      1          0      0
# LF -15      2      3          0      0
# LF -14     12     15          0      0
# LF -13     13     28          1      1
# LF -12     25     53          0      1
# LF -11     99    152          0      1
# LF -10    233    385          3      4
# LF  -9    312    697         13     17
# LF  -8    429   1126         16     33
# LF  -7    515   1641         27     60
# LF  -6    206   1847        125    185
# LF  -5      1   1848        245    430
# LF  -4      0   1848        338    768
# LF  -3      0   1848        444   1212
# LF  -2      0   1848        512   1724
# LF  -1      0   1848        124   1848
#-------- -----  ------   ------- ------
#
#
#=====================================
# BOUNDARY INFO   INST=8 Ks=2
#
# -----------     ------------- -------------     ------------- -------------     ------------- -------------     ------------- -------------
#     SYS CHP         P1a           P1b               P2a           P2b               P3a           P3b               P4a           P4b
# -----------     ------------- -------------     ------------- -------------     ------------- -------------     ------------- -------------
# BDRY_xy_K1:         1.0000000     2.0000000      1025.0000000     2.0000000      1025.0000000  1025.0000000         1.0000000  1025.0000000
# BDRY_uv_K1:         6.5533200    73.2765900      1024.8520600   134.8837700      1027.9537700  1160.1370600        12.8410400  1095.9083900
# BDRY_rd_K1:       271.4698462   -30.3369231       271.4793820   -30.3292230       271.4889384   -30.3369865       271.4794062   -30.3446418
# BDRY_UV_K1:         6.5533200    73.2765900      1024.8520600   134.8837700      1027.9537700  1160.1370600        12.8410400  1095.9083900
# -----------     ------------- -------------     ------------- -------------     ------------- -------------     ------------- -------------
# BDRY_xy_K2:      4095.0000000  4095.0000000      4095.0000000  4095.0000000      4095.0000000  4095.0000000      4095.0000000  4095.0000000
# BDRY_uv_K2:      4085.5385400  4454.7187200      4085.5385400  4454.7187200      4085.5385400  4454.7187200      4085.5385400  4454.7187200
# BDRY_rd_K2:       271.5464730   -30.3374716       271.5464730   -30.3374716       271.5464730   -30.3374716       271.5464730   -30.3374716
# BDRY_UV_K2:      4085.5385400  4454.7187200      4085.5385400  4454.7187200      4085.5385400  4454.7187200      4085.5385400  4454.7187200
# -----------     ------------- -------------     ------------- -------------     ------------- -------------     ------------- -------------
#
#
#===================================================
#  FILEOUT: ie8j01xnq_flt.uvwXYMpq                                                          
#---------------------------------------------------
# (01)  u -- u ref-frame           c002-c010    F001
# (02)  v -- v ref-frame           c012-c020    F002
# (03)  w -- dist-corr inst mag    c022-c028    F044
# (04)  X -- dist-cor x posn       c030-c038    F008
# (05)  Y -- dist-cor y posn       c040-c048    F009
# (06)  M -- instl mag (1000s)     c050-c056    F003
# (07)  p -- peak pixel value      c058-c068    F018
# (08)  q -- quality of fit        c070-c074    F019
#---------------------------------------------------
#
#  (01)      (02)     (03)     (04)      (05)     (06)      (07)     (08)   
#
#....u.... ....v.... ...w... ....X.... ....Y.... ...M... .....p..... ..q..  
#
  724.6034  120.8152 -12.402  723.6537    6.0528 -12.395    13571.12 0.024
  972.0276  136.0248  -6.848  972.0072    6.3091  -6.839       92.15 0.245
  222.5070   91.7028  -6.367  218.6009    7.3264  -6.365       52.85 0.338
  126.0901   86.2790  -7.229  121.4573    7.7399  -7.227      116.13 0.215
  418.9178  104.1934  -9.432  416.3344    7.8997  -9.427      845.40 0.059
  565.4244  112.7308  -8.469  563.6618    7.5750  -8.464      336.21 0.105
  869.6096  131.5915  -6.908  869.2230    8.0686  -6.900       93.73 0.234
  844.5770  130.4414  -6.278  844.0986    8.4279  -6.270       46.84 0.387
  481.0934  110.0471  -7.649  478.8612    9.9860  -7.644      169.90 0.179
  509.2523  112.0528  -9.532  507.1752   10.2878  -9.526      951.75 0.070
  814.8015  131.0856  -6.807  814.2025   10.8581  -6.799       86.91 0.479
  899.5280  136.2871  -7.118  899.2430   10.9390  -7.109      120.64 0.286
  159.6417   92.1145 -12.682  155.2439   11.5345 -12.680    15735.58 0.029
  363.3454  104.6656  -9.289  360.3894   11.7291  -9.285      746.85 0.061
   66.9719   88.4864  -6.081   61.8349   13.5098  -6.080       45.15 0.460
  174.0173   94.2365  -7.255  169.7206   12.7830  -7.253      128.91 0.269
  191.5319   98.1632 -12.370  187.3495   15.6413 -12.368    11967.25 0.026
  222.9325  100.4688  -6.010  218.9805   16.0400  -6.008       46.82 0.400
  368.6756  109.4217  -7.032  365.7314   16.1473  -7.028       99.16 0.225
  211.8078  102.9572  -8.227  207.7560   19.1945  -8.225      290.64 0.098
 1006.8234  150.8390  -7.314 1006.8678   18.9590  -7.305      120.78 0.224
  455.4877  118.6163 -10.768  453.0598   20.0679 -10.763     3125.16 0.037
  555.6225  124.4209 -11.598  553.7523   19.8116 -11.593     6604.87 0.031
  568.8600  125.8176  -7.500  567.0574   20.4034  -7.495      127.50 0.184
  912.9625  146.4079  -7.890  912.6946   20.2025  -7.881      227.06 0.083
  955.8309  149.8068  -8.179  955.7094   21.0012  -8.170      310.20 0.086
  977.5834  151.3995  -7.419  977.5326   21.2751  -7.410      130.00 0.248
  317.8460  112.0810  -6.005  314.5338   21.8719  -6.001       39.98 0.418
  489.3075  122.1480  -8.776  487.0660   21.5477  -8.771      466.01 0.066
  928.2812  148.9691  -9.000  928.0624   21.8282  -8.991      592.72 0.068
  756.1102  140.1468  -7.871  755.2274   23.4081  -7.864      215.15 0.182
  812.0330  143.0836  -8.333  811.3787   22.9691  -8.325      335.50 0.108
 1011.3026  155.4504  -6.611 1011.3466   23.2785  -6.601       80.53 0.338
  288.5393  112.0058  -9.305  285.0159   23.5706  -9.301      764.54 0.053
  654.8858  135.9399 -10.133  653.4957   25.2908 -10.127     1484.38 0.053
  205.6959  109.7736  -9.894  201.5579   26.3610  -9.891     1162.65 0.042
  362.8061  119.4159  -8.789  359.7701   26.4640  -8.785      438.82 0.083
  842.4900  148.4872  -5.701  841.9391   26.5173  -5.693       32.76 0.477
  867.3601  150.6635  -6.667  866.8982   27.1883  -6.659       84.17 0.269
  960.3194  155.6315 -10.373  960.1948   26.5277 -10.364     1916.90 0.045
  602.3673  135.9897  -7.612  600.7028   28.5123  -7.606      148.48 0.158
  732.0200  142.8683  -8.278  731.0175   27.5674  -8.271      295.57 0.100
  739.0373  143.6767  -6.264  738.0638   27.9503  -6.257       48.56 0.446
  574.9261  134.8627  -7.597  573.1166   29.0473  -7.592      166.02 0.169
  834.9856  151.2812  -6.644  834.3950   29.7501  -6.635       84.62 0.431
  997.6153  161.6591  -7.530  997.5969   30.2804  -7.521      157.18 0.200
  133.5504  110.4219  -9.730  128.8350   31.3670  -9.728     1192.36 0.070
  695.5907  144.2719  -8.682  694.3679   31.1314  -8.675      456.36 0.098
  810.6616  151.5096  -6.740  809.9708   31.4407  -6.732       70.02 0.335
  274.6031  120.9299  -8.626  270.9286   33.3114  -8.622      421.23 0.102
  378.3941  126.9087 -10.472  375.4261   32.9899 -10.468     2196.74 0.029
  394.3401  128.4444  -6.422  391.4720   33.5559  -6.418       46.34 0.408
  856.8161  156.4892  -7.139  856.2932   33.6218  -7.131       87.76 0.326
  243.6338  119.8929  -6.168  239.7318   34.1531  -6.165       51.34 0.435
  641.4398  144.0682  -8.664  639.9466   34.1992  -8.657      459.46 0.069
  216.8039  120.2666  -7.253  212.6933   36.1509  -7.250      136.69 0.212
  897.4773  161.2688  -6.374  897.0994   35.9287  -6.365       68.24 0.379
   13.4348  108.4096  -7.528    7.7181   36.6307  -7.527      148.45 0.184
  329.0242  128.5690 -10.798  325.7045   37.6325 -10.794     2852.13 0.031
  486.5959  138.5270  -7.691  484.2600   38.0319  -7.686      155.55 0.443
  657.8229  149.1887  -7.115  656.3922   38.3100  -7.109      103.16 0.186
  825.1967  159.2530  -6.509  824.5377   38.2757  -6.501       52.86 0.367
  500.6100  140.0139  -7.312  498.3504   38.6675  -7.306      108.37 0.142
  927.2410  165.6876  -6.449  926.9626   38.5320  -6.440       67.04 0.362
   85.3131  116.6453  -7.452   80.1591   40.4905  -7.451      119.82 0.293
  164.7277  120.9719  -6.776  160.2024   40.0045  -6.774      106.28 0.369
  900.7000  166.2117  -6.840  900.3179   40.6548  -6.831      113.88 0.421
  904.8639  167.1485  -7.114  904.4949   41.3361  -7.105      107.07 0.207
  215.4305  126.3549  -6.923  211.2749   42.3050  -6.921      105.45 0.369
  878.2956  165.9574 -10.229  877.8251   41.7535 -10.221     1871.58 0.035
  780.4626  160.8484 -10.125  779.6083   42.5569 -10.117     1396.39 0.039
  748.4297  160.7525  -8.818  747.4327   44.3903  -8.811      399.30 0.228
 1018.2045  176.6638  -7.566 1018.2045   43.9741  -7.557      178.00 0.170
  799.3933  164.2160  -7.863  798.6082   44.7706  -7.855      196.05 0.160
  953.8508  175.3098  -9.333  953.6390   46.5047  -9.324      694.50 0.036
 1001.8831  177.9399  -6.170 1001.8275   46.2269  -6.160       53.62 0.445
  580.7317  153.6033  -8.437  578.8708   47.3665  -8.431      365.94 0.101
  385.2577  142.3367  -7.653  382.2574   47.9537  -7.649      191.04 0.239
  126.9295  127.7711  -6.700  122.0567   49.0715  -6.698       72.57 0.339
  441.9281  147.1990  -6.406  439.2755   49.3723  -6.401       54.91 0.452
  850.1217  171.2257  -8.461  849.5206   48.6959  -8.453      316.62 0.091
  900.0045  174.5548  -8.708  899.5914   49.0023  -8.700      415.90 0.086
  286.6834  138.6242  -8.755  283.0029   50.2218  -8.752      501.45 0.063
  405.3356  146.0120  -8.306  402.4520   50.4020  -8.301      273.00 0.118
  972.8244  179.4411  -9.721  972.6669   49.4722  -9.712      999.17 0.053
   20.2940  123.2165 -10.339   14.5447   50.9882 -10.338     1668.43 0.156
  343.0622  143.1507  -7.588  339.7654   51.3199  -7.584      174.99 0.202
  459.0306  150.0602  -7.264  456.4709   51.1906  -7.260      128.79 0.183
  236.0783  137.6057  -7.245  232.0201   52.2728  -7.243      131.60 0.221
  471.7961  151.9728  -7.341  469.3057   52.3253  -7.336      128.58 0.189
  316.5595  142.7784  -8.380  313.0757   52.5538  -8.377      334.02 0.111
  657.3742  164.3103 -10.225  655.8781   53.4003 -10.219     1749.76 0.037
  712.9798  167.0805  -7.425  711.7920   52.8283  -7.418      152.49 0.153
  483.5890  154.3321  -6.323  481.1592   53.9639  -6.319       69.16 0.363
  795.8532  173.5383  -6.633  795.0184   54.2668  -6.625       64.83 0.264
   70.5895  129.9967 -10.250   65.2280   54.7011 -10.249     1851.56 0.031
  377.8224  149.0497  -8.580  374.7370   55.0961  -8.576      436.15 0.090
   56.0994  130.9243  -7.807   50.6067   56.5039  -7.807      168.94 0.137
  448.9781  153.8624 -10.268  446.3371   55.5878 -10.263     1738.11 0.041
  214.0696  140.8136  -6.393  209.8218   56.8058  -6.391       63.32 0.373
  457.3052  157.0993  -7.758  454.7004   58.3107  -7.753      195.13 0.172
  725.6916  173.2081  -6.487  724.5401   58.1657  -6.481       68.37 0.406
   95.4924  135.7747  -7.861   90.3084   58.9581  -7.860      214.70 0.154
  810.9158  179.1374  -7.305  810.1249   58.9350  -7.297      126.17 0.172
  272.6047  147.1689  -9.455  268.7726   59.5951  -9.452      815.32 0.052
  288.3250  148.3009  -8.309  284.6045   59.7710  -8.307      287.38 0.109
  781.1547  178.2980  -8.950  780.2379   59.8925  -8.943      604.58 0.061
  853.2956  184.2581  -8.395  852.6613   61.4807  -8.387      296.70 0.102
  106.7529  139.7231  -9.611  101.6403   62.2155  -9.609     1000.65 0.044
  374.1716  155.6857  -6.399  371.0270   61.9330  -6.395       56.46 0.343
  546.2360  166.5572  -8.193  544.1199   62.3592  -8.188      273.71 0.121
  840.2390  183.6262  -7.569  839.5540   61.6381  -7.561      159.54 0.206
 1000.2620  193.9970 -10.241 1000.1508   62.3069 -10.231     1872.45 0.032
  205.8495  146.6470  -9.008  201.5037   63.1218  -9.006      557.79 0.060
  406.0522  158.8466  -9.120  403.1086   63.1533  -9.116      702.61 0.060
 1015.0712  195.6184  -8.288 1015.0031   63.0279  -8.278      331.09 0.088
  139.6281  143.4745  -8.698  134.7671   63.9672  -8.697      464.77 0.092
  352.7352  156.3792  -9.501  349.4376   63.9231  -9.497      890.95 0.035
  248.7070  150.8840  -8.387  244.6726   64.7486  -8.385      338.19 0.083
  465.4360  163.8823 -10.814  462.8488   64.5797 -10.809     2969.72 0.023
  606.0715  172.8724  -8.092  604.2659   65.0324  -8.086      287.58 0.114
  558.6868  170.8155  -8.807  556.6235   65.8491  -8.802      407.89 0.177
  655.2411  176.5451 -10.213  653.6828   65.7178 -10.207     1775.76 0.045
 1007.9535  198.2480  -7.587 1007.8542   66.0745  -7.578      175.94 0.158
  549.4161  171.3872  -9.074  547.2964   66.9796  -9.069      652.32 0.056
  303.6339  157.1234  -8.879  299.9796   67.6404  -8.876      509.10 0.093
  514.7440  170.6731  -7.337  512.4237   68.3654  -7.332      116.84 0.160
  527.9795  171.2191  -6.159  525.7347   68.1090  -6.154       46.93 0.482
  537.3031  171.9245  -7.907  535.1099   68.2479  -7.902      233.95 0.129
  167.5402  150.5247 -14.101  162.8660   69.3096 -14.099   435607.88 0.000
  446.1453  167.1958 -10.624  443.4208   69.0496 -10.619     2533.71 0.038
   63.4835  145.5393  -6.452   57.9647   70.6394  -6.451       60.52 0.391
  980.6183  202.9704  -7.879  980.4128   72.4244  -7.870      190.52 0.132
  513.6225  176.6626  -8.885  511.2675   74.4022  -8.880      526.27 0.074
   17.1455  147.5272  -9.224   11.2126   75.4353  -9.224      653.28 0.064
  584.8239  181.1499  -8.774  582.8636   74.5654  -8.769      487.78 0.077
  614.6391  183.0013  -7.056  612.8365   74.6062  -7.051      106.76 0.205
  784.7814  193.2683  -8.609  783.8245   74.5834  -8.602      377.02 0.090
  592.7002  183.1648  -6.747  590.7753   76.0965  -6.742       74.50 0.341
  434.7565  174.6578  -8.017  431.9224   77.1776  -8.013      259.53 0.147
  842.6277  199.3362  -8.267  841.8966   77.1378  -8.259      297.42 0.128
  986.3896  208.2492  -6.803  986.1871   77.3313  -6.794       70.78 0.276
  227.4985  162.3943  -7.173  223.2351   77.5141  -7.171       96.25 0.242
  898.7628  203.3019 -11.215  898.2471   77.6982 -11.207     4531.21 0.021
  798.2823  198.8172  -7.871  797.3644   79.2956  -7.864      196.21 0.193
  603.7909  188.1912  -7.564  601.9059   80.4338  -7.559      163.38 0.148
  284.3012  168.7949  -7.938  280.4401   80.4519  -7.935      191.74 0.133
  667.8686  192.6186 -10.977  666.3090   80.9681 -10.971     3502.12 0.099
  140.3101  161.6151  -6.843  135.3478   82.0225  -6.842       87.90 0.224
  597.8464  189.2353  -6.608  595.9237   81.8340  -6.603       94.60 0.451
  786.2259  200.5805 -11.025  785.2480   81.7792 -11.018     3791.02 0.038
  397.0407  178.7132  -8.979  393.9355   83.5061  -8.976      517.68 0.093
  575.5870  189.1931 -10.766  573.5383   83.1392 -10.761     2851.90 0.028
  592.3537  190.4606  -8.180  590.3948   83.3874  -8.174      257.42 0.117
  731.8958  198.1941  -7.560  730.6757   82.6807  -7.553      142.48 0.157
  432.9136  181.7454 -10.411  430.0324   84.3552 -10.407     2148.88 0.040
  928.1167  212.0304  -6.486  927.6876   84.6157  -6.477       52.23 0.357
   55.8575  160.9727  -8.709   50.1765   86.5026  -8.709      423.39 0.102
  198.0164  170.0135  -8.502  193.4753   86.9024  -8.500      351.17 0.073
  527.5460  190.6274  -6.540  525.2086   87.4768  -6.535       60.23 0.353
 1018.4622  219.9329  -6.152 1018.3303   87.0262  -6.143       53.37 0.350
  324.9311  179.0719  -7.275  321.3161   88.2363  -7.272      131.78 0.210
  734.3941  205.0508  -9.372  733.1590   89.3605  -9.366      755.17 0.084
  682.3961  202.4796  -9.551  680.8710   89.9140  -9.545     1042.56 0.039
  860.5197  213.5789  -8.378  859.8117   90.2419  -8.370      371.86 0.113
  106.1227  168.4386  -9.373  100.8320   90.9035  -9.372      867.10 0.073
  279.8444  180.4414  -8.543  275.8866   92.3374  -8.540      386.41 0.082
  319.2269  183.0013  -9.298  315.5497   92.5009  -9.295      633.02 0.060
  625.1574  200.8026  -6.690  623.3357   91.7074  -6.684       68.30 0.378
  888.5751  217.2359 -10.504  887.9705   92.1885 -10.496     2579.90 0.044
  519.2291  195.2798  -9.827  516.8206   92.6175  -9.823     1192.97 0.051
  749.0457  209.0436  -9.590  747.8648   92.4535  -9.583      733.73 0.273
  909.5007  219.6420  -9.022  908.9728   93.3197  -9.014      643.05 0.090
  979.8060  223.4192  -7.079  979.5324   92.8320  -7.070       94.08 0.240
   55.6442  168.7095  -7.469   49.9133   94.2365  -7.468      149.16 0.207
  359.7070  186.5758  -7.823  356.3021   93.6101  -7.820      177.81 0.247
  618.4223  202.7981  -7.660  616.5550   94.1036  -7.655      175.04 0.207
  246.0666  181.6034  -7.202  241.8420   95.5463  -7.200      111.01 0.242
  428.5767  192.2214 -10.266  425.6153   95.0627 -10.263     1925.29 0.040
  176.0253  177.8665  -8.639  171.2618   96.0695  -8.637      437.09 0.099
  267.4075  183.8187  -9.425  263.3362   96.4606  -9.423      734.68 0.054
  330.4329  188.7669  -8.172  326.8069   97.5710  -8.169      266.47 0.100
  745.1864  214.8550  -7.845  743.9647   98.4760  -7.839      210.24 0.149
  835.6985  221.1200  -8.996  834.8608   99.2504  -8.989      616.65 0.068
   52.7304  174.7060  -6.095   46.9365  100.3980  -6.094       51.47 0.438
  146.4931  179.6892  -7.906  141.4758   99.6796  -7.904      185.17 0.156
  343.9732  191.9346  -9.078  340.4283   99.9085  -9.075      561.72 0.066
  538.0009  203.7128  -6.431  535.6655   99.8851  -6.426       66.52 0.316
  668.9075  212.7404  -9.900  667.2702  100.9543  -9.894     1427.91 0.035
  859.9792  224.4141  -8.175  859.2311  101.0650  -8.168      302.00 0.097
   39.5285  176.5910  -6.282   33.6051  103.0810  -6.282       58.61 0.393
  158.9052  183.4970  -6.122  153.9686  102.7253  -6.120       45.89 0.462
  470.7764  202.4492 -12.754  468.0357  102.7010 -12.750    18971.00 0.021
  584.3866  209.8085  -7.180  582.2968  103.1507  -7.175      116.23 0.234
  954.4225  232.7964  -6.328  954.0254  103.7030  -6.319       54.81 0.340
 1012.9326  237.1032  -9.234 1012.7296  104.4538  -9.225      636.04 0.063
  406.2444  201.2738  -9.983  403.0880  105.4436  -9.979     1348.56 0.034
  963.8186  234.5421  -7.992  963.4509  104.8732  -7.983      234.88 0.116
  103.5538  183.3461  -6.424   98.1513  105.9348  -6.423       60.18 0.444
  118.7972  183.8332  -7.128  113.5222  105.4953  -7.127       87.98 0.122
  755.0008  223.0046  -9.679  753.7943  106.0021  -9.673     1246.86 0.053
  208.8088  191.7840  -8.676  204.2313  107.9635  -8.674      458.16 0.086
  478.8258  208.5443 -10.581  476.1064  108.2891 -10.577     2644.63 0.036
  647.4345  218.5723  -6.875  645.6584  108.0659  -6.869       78.31 0.260
 1005.9959  241.6086  -9.684 1005.7556  109.3590  -9.675     1040.82 0.065
  259.6108  196.5074  -6.745  255.4099  109.5902  -6.743       71.76 0.284
  232.6862  197.7150  -8.900  228.2668  112.4300  -8.898      486.96 0.072
  251.7219  199.5166  -8.043  247.4428  113.0710  -8.041      232.07 0.131
  516.6530  215.1598  -7.150  514.1360  112.5890  -7.146      109.20 0.142
   24.4073  186.9140  -8.415   18.2899  114.3012  -8.415      295.38 0.123
  175.1022  194.8130  -6.410  170.2335  113.0320  -6.409       48.50 0.406
  215.4168  198.0716  -9.697  210.8572  113.8346  -9.695     1143.95 0.063
  924.1497  241.7251  -9.857  923.6062  114.4249  -9.849     1149.14 0.039
   76.9913  190.7655  -8.855   71.3128  114.9525  -8.855      523.58 0.067
  196.8560  199.0962  -8.491  192.1400  115.9843  -8.489      381.31 0.080
  572.8433  222.3423  -6.393  570.6305  116.3420  -6.389       60.74 0.434
  742.6574  232.1237  -6.945  741.3566  115.8335  -6.939       86.00 0.238
   57.6025  191.3480  -8.720   51.7488  116.7121  -8.719      405.66 0.092
   95.1837  196.0098  -7.061   89.6323  119.0810  -7.061      114.72 0.319
  588.1111  225.7209  -7.689  585.9723  118.7842  -7.684      174.65 0.149
  597.8686  226.6310  -7.784  595.7820  119.1000  -7.779      202.58 0.162
  141.4694  200.1484  -7.066  136.2897  120.3985  -7.065      117.91 0.418
  549.9149  224.2414 -10.164  547.5573  119.6245 -10.160     1504.70 0.035
  566.8889  225.2166  -6.838  564.6281  119.5677  -6.833       67.90 0.247
  705.9702  233.7815  -7.086  704.4813  119.7041  -7.080       98.80 0.316
  894.6821  246.8957 -12.681  894.0016  121.3569 -12.673    17461.45 0.017
   51.4510  197.0373  -9.406   45.5071  122.7648  -9.406      776.00 0.063
  351.4683  215.8707 -10.061  347.8528  123.3258 -10.058     1531.48 0.052
  648.0353  233.4008  -7.559  646.2001  122.8072  -7.554      151.58 0.145
  866.4966  246.3635  -8.759  865.6989  122.5321  -8.752      409.72 0.065
  289.3841  213.7080  -6.104  285.3197  124.9397  -6.101       37.89 0.491
  541.8940  228.4800  -6.400  539.4684  124.3356  -6.396       58.90 0.448
  937.4785  254.3151  -7.872  936.9458  126.1569  -7.864      226.41 0.123
   19.5718  198.9173  -6.380   13.3334  126.5752  -6.381       44.41 0.461
  243.8354  212.6941 -10.352  239.4214  126.6956 -10.350     1898.73 0.028
  408.4670  222.8037  -8.504  405.2172  126.7790  -8.500      386.84 0.114
  749.7355  243.4159  -6.651  748.4252  126.6568  -6.645       56.02 0.353
  459.0386  227.3920  -6.343  456.1019  128.2822  -6.339       58.14 0.457
  698.5626  242.0341 -11.536  696.9604  128.3493 -11.531     6048.95 0.031
  796.7888  247.5544  -6.136  795.6838  127.9336  -6.129       48.45 0.438
  270.1846  216.9374  -6.664  265.9544  129.3276  -6.662       64.91 0.329
  375.7828  223.4571  -7.004  372.3017  129.4157  -7.001       75.87 0.297
  726.9227  243.9346  -9.370  725.4986  128.5538  -9.364      698.73 0.051
  113.3080  208.0874  -6.490  107.8409  130.0327  -6.490       76.49 0.393
  360.6892  222.7762 -12.292  357.1041  129.6534 -12.289    12101.17 0.022
  250.4935  217.3214  -8.871  246.1066  130.9073  -8.869      560.11 0.050
  818.6111  253.1256  -7.069  817.5840  132.1638  -7.063       90.69 0.269
  862.9984  255.1746 -10.716  862.1555  131.5200 -10.708     2645.73 0.024
   44.2970  207.1695  -6.756   38.2256  133.3140  -6.757       73.65 0.190
  184.7489  214.8899  -6.373  179.8439  132.4774  -6.372       54.70 0.331
  387.9527  228.0583 -10.444  384.5338  133.2656 -10.441     2008.30 0.034
  420.5328  231.6705  -9.973  417.3212  134.8891  -9.970     1475.08 0.037
  558.6249  240.4106  -9.121  556.2463  135.2139  -9.116      655.55 0.084
  799.3261  255.3153  -7.567  798.2040  135.5121  -7.560      135.40 0.156
   23.1649  208.5904  -7.382   16.8983  136.0123  -7.382      152.29 0.164
  196.1775  219.6051  -6.812  191.3392  136.4872  -6.811       64.15 0.336
  699.0701  250.0154 -11.789  697.4384  136.2725 -11.784     6816.47 0.018
  432.2731  234.6325 -10.184  429.1253  137.1293 -10.180     1886.81 0.031
  516.6538  240.0775  -7.197  514.0204  137.4293  -7.193      128.04 0.288
  600.7604  244.6148  -6.531  598.6117  136.8497  -6.526       60.66 0.295
  492.1157  239.7471  -9.169  489.3308  138.5913  -9.165      611.58 0.051
  639.4333  250.1440  -6.645  637.4801  140.0162  -6.640       64.92 0.400
  820.5165  260.7319  -9.372  819.4703  139.6262  -9.365      737.02 0.054
  997.8011  271.8865  -7.977  997.4377  140.0046  -7.969      209.47 0.120
   52.6440  215.1244  -8.984   46.5985  140.7473  -8.985      552.11 0.076
  316.5986  231.3461 -10.801  312.6464  140.8809 -10.799     2986.10 0.048
  588.1840  247.8379  -6.438  585.9478  140.8252  -6.433       59.01 0.358
  567.3502  247.8625  -7.231  564.9904  142.1133  -7.227      125.47 0.295
  130.7034  222.0618  -6.381  125.3027  142.9213  -6.381       56.97 0.317
  293.4149  231.7490  -9.976  289.2846  142.6921  -9.974     1404.40 0.052
  438.4206  240.4284  -6.565  435.2849  142.5356  -6.562       68.20 0.325
  977.3819  274.0752 -12.959  976.9375  143.4218 -12.951    21259.80 0.030
   29.0642  216.7367  -7.619   22.8004  143.7855  -7.619      188.46 0.186
  221.9711  228.5119  -7.993  217.2935  143.8059  -7.991      225.77 0.146
  514.0796  246.4449  -8.662  511.4005  143.9339  -8.658      412.59 0.079
  483.0017  245.7620 -10.044  480.1303  145.1429 -10.040     1588.58 0.049
  959.3195  274.7613  -7.106  958.8046  145.1986  -7.098      126.02 0.314
   56.6664  221.3251  -6.625   50.6188  146.6925  -6.625       57.08 0.463
  384.9365  240.1422  -7.552  381.4347  145.5015  -7.549      127.52 0.150
  895.8935  271.8542  -7.641  895.1334  146.1431  -7.634      186.90 0.199
  939.5887  273.9735  -8.263  938.9996  145.6084  -8.255      278.27 0.138
 1001.5351  278.2888  -7.523 1001.1650  146.1541  -7.515      185.99 0.210
  464.6236  247.2783  -6.907  461.6265  147.7728  -6.904       83.37 0.323
  843.7244  270.2660  -6.961  842.7463  147.7197  -6.954       85.36 0.290
  890.1505  273.2865  -8.257  889.3611  147.9177  -8.250      302.63 0.107
  615.2329  258.0200  -7.963  613.1093  149.3344  -7.958      231.02 0.106
  804.8708  269.3695  -7.446  803.7223  149.1791  -7.439      143.00 0.246
   32.7994  223.4456  -8.779   26.5214  150.2629  -8.779      414.15 0.083
  288.0240  238.6010  -9.332  283.8153  149.8557  -9.330      805.11 0.048
  420.3193  246.6018  -8.741  417.0316  149.7939  -8.738      472.68 0.074
  402.7221  246.3098  -6.591  399.3139  150.5724  -6.588       63.87 0.336
  698.0713  264.7141  -7.478  696.3752  150.9826  -7.472      151.64 0.210
  727.0469  266.7080 -11.783  725.5338  151.2410 -11.778     6948.43 0.017
  541.6737  256.4316  -6.818  539.1186  152.2138  -6.814       81.31 0.274
  589.4571  258.7462  -7.194  587.1803  151.6220  -7.190      127.06 0.322
  750.9357  269.8966  -5.994  749.5292  152.9714  -5.988       42.21 0.461
  688.9335  267.1195  -6.287  687.1794  153.9343  -6.281       44.40 0.476
  776.2115  272.7859  -7.719  774.9163  154.3193  -7.713      207.15 0.176
  565.4232  260.9254  -8.742  562.9930  155.2528  -8.738      502.50 0.082
  204.1091  239.7652  -6.446  199.2218  156.1209  -6.445       60.59 0.347
  332.8762  247.0949  -6.498  328.9620  155.6023  -6.496       58.10 0.366
  659.5768  267.6530  -8.219  657.6616  156.2468  -8.214      286.55 0.096
  835.0231  278.3354  -9.119  833.9780  156.2860  -9.112      656.19 0.081
  272.5572  245.2774  -8.729  268.1915  157.4575  -8.727      408.46 0.073
  375.0495  253.3791  -8.180  371.4097  159.3065  -8.177      255.64 0.155
   12.3008  231.9854  -8.437    5.7835  160.0274  -8.437      337.57 0.176
   25.1767  235.2094  -7.039   18.7596  162.4628  -7.039       91.15 0.338
  629.1893  272.7375  -7.331  627.0823  163.1589  -7.326      168.53 0.242
  826.2040  285.0769  -9.593  825.0954  163.5372  -9.587      949.36 0.054
  954.9209  293.3596 -12.195  954.3286  163.9898 -12.187    11257.20 0.022
  262.8976  252.5001  -8.043  258.4162  165.2517  -8.042      239.47 0.117
  686.8592  277.7630  -7.294  685.0508  164.6691  -7.288      126.93 0.221
  701.4263  280.1504  -8.045  699.7279  166.1920  -8.040      257.96 0.123
  162.8447  248.2589  -8.995  157.5643  167.1100  -8.994      576.58 0.086
  154.9523  248.9807  -7.314  149.6006  168.3114  -7.314      130.46 0.196
  184.5768  250.2688  -8.471  179.4676  167.7919  -8.470      327.56 0.086
  332.6690  259.8725  -8.682  328.6863  168.3626  -8.680      409.69 0.076
  380.1906  262.6587  -8.393  376.5401  168.2510  -8.391      304.76 0.091
   43.2728  243.6357  -8.175   36.9647  169.7833  -8.175      305.62 0.108
  946.1223  298.7731  -7.798  945.4777  169.9155  -7.791      164.47 0.237
  980.3683  301.2658  -6.563  979.8483  170.3236  -6.556       74.59 0.496
  364.5613  265.3639  -8.476  360.7843  171.9008  -8.474      358.00 0.089
  736.9380  287.6978  -8.995  735.3927  171.5610  -8.989      493.06 0.071
  816.5982  294.5071  -6.510  815.4117  173.5163  -6.504       71.14 0.480
   88.3620  250.9638  -6.452   82.4174  174.3509  -6.453       60.96 0.406
  120.6748  253.0573  -9.202  115.0033  174.4707  -9.202      686.92 0.091
  767.4978  292.1932 -10.663  766.0872  174.1881 -10.657     2845.16 0.026
  971.8577  304.7543  -7.371  971.2943  174.3140  -7.363      131.16 0.279
  994.9796  306.8111  -6.487  994.4966  174.9595  -6.479       61.76 0.304
  931.7058  304.3243  -6.760  930.9850  176.3193  -6.753       80.01 0.295
  420.3625  274.2020  -9.319  416.9374  177.3224  -9.317      693.72 0.117
  884.6169  301.6854  -6.889  883.7065  176.5450  -6.882       65.96 0.375
  264.3135  265.0904 -10.902  259.7745  177.7303 -10.901     3420.51 0.034
  965.5064  309.0996  -6.652  964.9046  179.0273  -6.644       86.93 0.305
  292.2731  269.3325  -9.365  287.9322  180.2617  -9.364      813.34 0.124
  587.8274  286.7381 -12.642  585.4175  179.6300 -12.638    14897.21 0.016
  207.9662  265.3223 -10.670  202.9664  181.3938 -10.669     2734.75 0.036
  214.5636  265.4006  -7.635  209.6182  181.0701  -7.634      161.36 0.207
  863.9206  304.6142 -10.272  862.9091  180.7185 -10.265     1996.36 0.045
  279.7037  270.8976 -11.490  275.2554  182.5891 -11.489     5500.90 0.026
  941.2073  311.0896  -7.901  940.5027  182.4829  -7.894      172.18 0.168
  308.2044  275.0469  -9.658  303.9570  184.9945  -9.656     1183.99 0.038
  495.3045  286.2651  -9.207  492.3194  184.7873  -9.204      680.65 0.048
  788.1420  304.1612  -9.795  786.7863  184.8642  -9.790     1212.18 0.127
  803.3307  304.8722  -6.649  802.0444  184.6512  -6.643       59.45 0.332
  133.6244  265.2566  -8.863  127.9940  185.8616  -8.863      547.64 0.078
  413.3556  282.7780  -7.897  409.8392  186.3046  -7.894      199.70 0.105
 1012.4748  318.8761  -9.588 1012.0184  185.9136  -9.580     1035.83 0.100
  239.1329  272.6513  -8.992  234.3490  186.8113  -8.991      568.19 0.075
  972.6462  317.4051  -8.693  972.0456  186.8676  -8.685      467.93 0.076
  939.6314  316.3409  -7.899  938.9033  187.8100  -7.892      214.48 0.152
  283.4377  277.4845  -8.453  278.9833  188.9360  -8.452      433.12 0.101
  691.9188  302.7277  -6.253  690.0378  189.2508  -6.248       44.87 0.429
   30.0336  263.4275  -8.557   23.4828  190.3501  -8.558      331.33 0.090
  129.1058  269.3050  -8.314  123.4123  190.1796  -8.314      288.38 0.123
   99.3126  267.9250  -6.476   93.3642  190.6194  -6.476       70.77 0.497
  987.8443  322.8778  -6.411  987.2845  191.3963  -6.403       57.69 0.382
 1014.6618  323.6501  -9.243 1014.1987  190.5359  -9.235      636.50 0.168
  672.9777  304.0425  -8.660  670.9873  191.7126  -8.656      445.58 0.083
  625.3090  302.5702  -5.947  623.0529  193.1412  -5.943       37.53 0.448
  133.9052  274.2784  -7.387  128.2243  194.8530  -7.387      127.68 0.338
  263.8073  282.2705 -10.789  259.1703  194.9095 -10.788     3221.51 0.031
  484.4716  295.4306  -6.017  481.3729  194.5907  -6.013       41.69 0.380
  606.5949  303.6524 -10.028  604.2238  195.3579 -10.024     1403.97 0.049
  296.9403  285.2243  -9.102  292.5505  195.8382  -9.101      635.22 0.081
  580.3745  303.8995  -7.389  577.8437  197.1985  -7.385      126.16 0.273
  941.6249  325.2800  -8.233  940.8755  196.5949  -8.226      266.26 0.131
  290.2905  286.6226 -11.170  285.8408  197.6393 -11.169     3699.71 0.233
  319.5503  288.9264  -9.230  315.3156  198.1550  -9.228      726.43 0.046
  336.9405  289.9155  -7.338  332.8322  198.0820  -7.336      129.83 0.191
  430.2421  295.6400  -6.313  426.7794  198.1075  -6.310       45.45 0.480
  798.6377  317.8811  -7.527  797.2811  197.9022  -7.521      167.43 0.173
   83.8483  274.9707  -9.944   77.7189  198.5993  -9.945     1319.04 0.033
  688.6873  312.3234  -7.783  686.7504  199.0150  -7.778      206.03 0.133
  118.3853  278.8678  -6.720  112.5412  200.3830  -6.720       72.55 0.357
  194.8676  282.7037  -8.865  189.6598  199.5459  -8.865      494.12 0.068
  900.6467  326.1832  -7.738  899.7217  199.9828  -7.731      200.18 0.106
  789.6801  320.4439 -10.083  788.2711  201.0007 -10.077     1692.43 0.036
  464.6410  302.2475  -8.748  461.3789  202.6012  -8.745      422.84 0.076
  772.2950  321.8456  -9.305  770.7959  203.4537  -9.299      717.95 0.068
  102.0903  281.4390  -9.993   96.0861  203.9454  -9.993     1416.75 0.234
  603.8651  312.2224  -6.885  601.4405  204.0712  -6.881       77.04 0.222
  489.1261  306.1819  -9.109  486.0068  205.0325  -9.106      712.37 0.058
  588.2454  313.7114  -7.783  585.7195  206.5064  -7.780      164.93 0.134
  859.6753  329.8418  -6.474  858.5560  206.1173  -6.467       56.88 0.409
  956.2880  335.2707  -9.307  955.5656  205.6584  -9.300      670.06 0.068
   64.3843  282.0858  -9.970   58.0347  206.8934  -9.971     1558.67 0.035
  471.2339  308.5622  -6.923  467.9854  208.4989  -6.920       93.60 0.292
  923.7044  335.9703  -7.532  922.8451  208.3348  -7.525      156.66 0.207
  407.7587  305.6291  -8.042  404.0892  209.4453  -8.040      204.66 0.115
  717.4839  324.1503  -6.884  715.6965  209.0815  -6.879       99.33 0.301
  297.9313  299.5560  -8.501  293.4723  210.0828  -8.500      336.09 0.092
  535.5191  314.4287  -7.660  532.6589  210.4297  -7.657      144.66 0.150
  943.5634  339.9846  -6.622  942.7738  211.1280  -6.615       73.17 0.353
  352.7596  304.8937  -6.739  348.6919  212.0656  -6.737       61.33 0.306
   55.2624  287.7237  -8.678   48.7945  213.0816  -8.679      448.51 0.095
   42.0983  287.3870 -11.340   35.5103  213.5493 -11.342     4092.86 0.028
  124.2964  292.3650  -8.437  118.4249  213.5011  -8.438      296.49 0.098
  216.6771  298.5648  -6.590  211.5631  214.0520  -6.590       64.88 0.294
  234.3880  299.3967  -7.068  229.4167  213.8015  -7.068       99.89 0.238
  487.2918  315.3143  -7.845  484.1172  214.2556  -7.842      191.74 0.140
  688.0674  327.5729  -6.682  686.0663  214.2591  -6.677       58.48 0.273
  457.9295  314.6159  -7.270  454.5628  215.3508  -7.268      122.00 0.245
  919.1849  342.4689  -8.452  918.2847  215.0850  -8.445      376.11 0.106
  973.7518  346.1338 -11.742  973.0645  215.4205 -11.735     7025.79 0.019
  993.1674  347.1733  -8.054  992.5519  215.2754  -8.047      224.46 0.183
  400.8004  311.7321  -6.252  397.0505  215.9597  -6.250       49.71 0.395
  149.3096  297.9020  -7.387  143.6251  217.5033  -7.387      125.49 0.204
  307.2653  306.9732  -6.020  302.8400  216.9170  -6.019       43.15 0.350
  765.8824  334.7276  -6.866  764.3028  216.6855  -6.861       83.89 0.307
  837.6071  338.9714  -6.071  836.3557  216.5575  -6.065       48.98 0.439
  529.5264  321.9072  -9.299  526.5934  218.2556  -9.296      720.64 0.053
  648.3201  328.7627  -8.215  646.0883  217.8637  -8.211      300.24 0.095
  265.6520  306.8033  -6.571  260.8957  219.2875  -6.570       79.16 0.400
  194.1009  303.5097 -10.281  188.7686  220.3682 -10.281     1792.38 0.037
  241.6672  305.9940  -8.959  236.7194  219.9439  -8.959      589.76 0.056
  273.6408  308.1026 -10.634  268.9420  220.0969 -10.633     2777.35 0.057
  623.6595  328.9821  -7.991  621.2816  219.5830  -7.987      208.53 0.089
  709.6590  334.9051 -11.823  707.7880  220.2803 -11.819     7974.63 0.020
  786.9978  338.8889  -7.596  785.5070  219.5507  -7.591      129.69 0.133
  561.5000  326.2557 -10.075  558.7520  220.6468 -10.071     1493.71 0.044
  890.5980  346.2962  -9.039  889.5598  220.6373  -9.032      538.25 0.064
   15.6956  294.3795  -6.560    8.8163  222.1345  -6.562       73.40 0.372
   47.5445  297.0379  -8.728   40.9480  222.8564  -8.729      504.07 0.099
   20.7682  296.5962  -6.489   13.9234  224.0392  -6.490       87.96 0.453
  716.4133  338.7765  -9.147  714.5630  223.7299  -9.142      601.97 0.084
  751.8572  340.8238  -7.771  750.1835  223.6160  -7.766      189.52 0.172
  199.3540  308.5726 -11.050  194.0375  225.1032 -11.050     4140.20 0.035
   71.9642  303.0785  -5.930   65.5569  227.3980  -5.931       36.26 0.434
  124.5070  305.4678  -6.785  118.5601  226.5743  -6.785       63.48 0.310
  332.7912  318.2681  -8.218  328.5029  226.6331  -8.217      254.45 0.110
  431.3595  324.4021  -8.907  427.7637  226.7378  -8.905      537.41 0.067
  610.5805  336.8245  -6.455  608.0904  228.2016  -6.451       59.71 0.356
  184.6906  311.5073  -7.060  179.2328  228.9296  -7.060      111.55 0.302
  768.4158  346.9500  -9.937  766.8027  228.7171  -9.932     1350.04 0.057
  136.6721  309.4469  -7.324  130.8095  229.8052  -7.325      118.00 0.233
  414.6894  326.3704  -8.535  410.9667  229.7198  -8.533      331.25 0.318
  547.7712  334.5076  -7.872  544.8981  229.7151  -7.869      225.04 0.148
  649.2429  341.9924  -8.180  646.9615  231.0025  -8.176      315.70 0.114
  845.1436  353.5259  -6.027  843.8745  230.6074  -6.021       42.72 0.444
  516.5326  335.1465  -7.769  513.4551  232.2576  -7.766      174.28 0.105
  575.0041  338.8274  -6.977  572.2852  232.3661  -6.974       84.57 0.298
  748.7937  348.8749  -6.818  747.0735  231.8297  -6.813       90.94 0.308
  974.1550  362.7744  -7.527  973.4165  231.9758  -7.520      153.19 0.153
  460.3762  332.8141  -6.266  456.9385  233.3597  -6.263       56.10 0.393
  170.8195  316.8727  -8.693  165.2119  235.1354  -8.693      505.57 0.090
  178.5287  317.1742  -8.912  172.9858  234.9654  -8.912      542.64 0.093
  377.3681  329.1495  -7.871  373.3592  234.7721  -7.869      230.95 0.180
 1012.7593  369.2583  -9.023 1012.1495  236.0863  -9.016      626.65 0.093
  652.1706  348.2524  -8.103  649.8806  237.0682  -8.099      279.56 0.147
   21.8136  312.3407  -8.340   14.8799  239.7038  -8.341      345.85 0.095
  400.1326  335.4354  -6.626  396.2594  239.6553  -6.625       58.00 0.358
  773.9238  358.5500  -8.251  772.2946  239.9478  -8.246      324.05 0.086
   85.8608  317.2584  -7.950   79.4954  240.7128  -7.951      189.71 0.143
  117.4694  319.0341  -8.867  111.3796  240.5544  -8.868      456.38 0.058
  514.6895  343.5579  -6.850  511.5610  240.7629  -6.847       78.78 0.282
  565.5675  347.2917  -8.317  562.7509  241.3854  -8.313      286.79 0.105
  924.0173  369.2749  -9.267  923.0483  241.5051  -9.260      682.36 0.055
   28.6722  316.3456  -7.663   21.7791  243.2857  -7.664      157.22 0.213
  151.8667  324.2078  -6.549  146.0518  243.6196  -6.550       70.07 0.390
  271.9218  332.1974  -7.614  267.0779  244.2580  -7.614      175.72 0.119
  326.1618  334.9691  -7.981  321.7346  243.7094  -7.980      219.22 0.112
  411.8186  340.2302  -6.023  408.0066  243.7268  -6.021       47.02 0.442
  573.2576  350.5676  -8.450  570.4754  244.1851  -8.447      326.07 0.099
  674.4048  356.4053  -8.793  672.2106  243.8461  -8.789      523.80 0.080
  338.0044  337.2664  -7.196  333.6566  245.2789  -7.195      106.05 0.255
  690.7440  358.0515  -6.295  688.6365  244.4927  -6.290       50.92 0.447
  766.7004  364.3311 -11.343  765.0129  246.1517 -11.338     5503.76 0.020
  958.4865  375.7610  -8.308  957.6425  245.8702  -8.301      300.65 0.113
  989.5366  378.0890  -9.903  988.8107  246.2991  -9.896     1369.81 0.040
  525.1511  350.4262 -11.091  522.0582  246.9771 -11.088     4306.24 0.055
  871.1561  371.5031  -9.326  869.9414  246.9458  -9.320      852.53 0.055
   59.7270  322.5827  -8.028   53.0880  247.6293  -8.029      228.42 0.125
  380.7279  342.6691  -8.298  376.6754  248.0607  -8.297      303.01 0.077
  700.0706  362.3049  -6.873  697.9989  248.1670  -6.868       79.01 0.429
  244.8542  335.1789  -6.965  239.7714  248.8906  -6.965       92.54 0.242
 1000.2902  380.9755  -6.505  999.5970  248.5203  -6.498       51.86 0.348
   52.2147  324.7836  -7.276   45.4920  250.2875  -7.278      101.92 0.293
  451.7639  349.5808  -6.062  448.1865  250.6177  -6.060       38.75 0.434
   15.9968  324.5382  -9.204    8.9304  252.2454  -9.205      742.72 0.048
  112.5377  330.2726  -6.537  106.3370  252.0819  -6.538       67.64 0.344
  152.0768  333.0367  -9.021  146.2125  252.4254  -9.022      548.71 0.056
  659.5001  363.9177  -6.972  657.1886  252.2476  -6.968       88.46 0.290
  772.4433  370.9458  -9.812  770.7599  252.3979  -9.807     1157.80 0.042
  673.9955  365.6291  -6.723  671.7617  253.0714  -6.719       71.67 0.356
  634.1751  365.4880  -8.004  631.7061  255.3576  -8.000      196.21 0.161
  176.4664  339.4952  -8.477  170.7779  257.3852  -8.478      332.80 0.120
  683.3159  369.8034  -8.420  681.1191  256.6671  -8.416      352.19 0.095
  872.7872  382.0206  -7.636  871.5433  257.3313  -7.630      125.29 0.184
  251.1839  344.5184  -6.913  246.1022  257.8298  -6.913       89.74 0.257
  595.5347  365.7620 -12.141  592.8264  257.9867 -12.138    11617.76 0.021
  897.2198  385.4204  -6.443  896.0771  259.2308  -6.437       51.63 0.384
  987.1113  390.6871  -7.321  986.3365  259.0006  -7.314      139.31 0.181
   56.2691  334.7954 -11.107   49.5233  260.0418 -11.108     3756.72 0.028
  561.7266  365.2236  -6.479  558.8048  259.5112  -6.476       49.31 0.397
  916.5568  387.5632  -7.793  915.4939  260.1877  -7.787      173.26 0.124
  508.4531  364.8804  -6.084  505.1842  262.4212  -6.082       44.74 0.460
  730.9642  378.6107  -6.612  729.0361  262.5676  -6.608       73.63 0.263
  778.6018  381.7388  -7.068  776.9090  262.7854  -7.063      108.02 0.232
  484.6745  365.6058  -6.365  481.2441  264.5988  -6.363       53.04 0.429
  196.4711  349.3806  -8.450  190.8989  266.0360  -8.450      353.10 0.109
  286.4188  356.3733  -8.121  281.5618  267.5111  -8.121      214.40 0.105
  936.5567  395.5291  -6.519  935.5552  266.9084  -6.513       55.23 0.422
  950.6161  396.9683  -6.368  949.6705  267.4853  -6.362       48.59 0.327
  144.2340  349.4427  -9.241  138.2048  269.2933  -9.242      707.65 0.079
  232.5244  354.7030  -7.755  227.2302  269.1437  -7.755      190.30 0.159
  340.1494  361.0292  -6.629  335.6940  268.8707  -6.628       63.71 0.291
  502.0959  370.7696  -8.627  498.7575  268.6871  -8.624      404.79 0.101
  135.2297  349.5029  -8.008  129.1198  269.9043  -8.009      234.15 0.140
  187.3285  352.5591  -9.670  181.6594  269.7701  -9.671      918.99 0.158
  549.4518  374.5944  -9.382  546.4073  269.6107  -9.379      735.61 0.047
  928.9740  398.6029  -9.806  927.9292  270.4347  -9.800     1189.78 0.049
  517.8529  374.4889  -8.706  514.6010  271.4354  -8.704      373.08 0.098
  355.0139  364.8987  -8.530  350.6532  271.8242  -8.528      388.41 0.111
  793.7649  391.5793  -8.285  792.1115  271.6747  -8.280      282.70 0.141
  882.9429  396.9718  -7.729  881.6945  271.6174  -7.723      166.19 0.184
  967.9457  402.3784 -10.632  967.0559  271.8204 -10.625     2861.31 0.034
  983.1759  404.5580  -8.069  982.3420  273.0638  -8.063      231.61 0.154
  645.7279  384.6013  -8.629  643.2488  273.7213  -8.626      409.57 0.086
  735.5759  389.9198  -6.682  733.6287  273.5656  -6.677       71.40 0.393
   22.6353  347.6111  -8.092   15.4883  274.8931  -8.094      231.41 0.086
 1014.4159  408.7596  -6.123 1013.6914  275.3464  -6.116       41.86 0.426
   47.7277  351.4258  -7.331   40.7997  277.1806  -7.333      127.27 0.208
   57.7608  352.3988  -8.323   50.9217  277.5387  -8.324      298.48 0.102
  531.9927  381.9112  -7.372  528.7986  277.9782  -7.369      140.11 0.182
  810.1678  398.6107  -9.642  808.5695  277.6870  -9.637      910.97 0.057
  898.3805  404.8902  -6.946  897.1765  278.5694  -6.940       81.37 0.308
   86.3412  356.4120  -6.772   79.7450  279.7989  -6.773       72.16 0.255
  713.8858  394.7867  -7.597  711.8026  279.7422  -7.593      137.31 0.171
   77.0506  356.7927  -8.082   70.3657  280.7481  -8.084      253.48 0.122
  296.5105  370.5864  -6.648  291.6588  281.0858  -6.648       75.91 0.424
  683.9058  394.5869  -7.884  681.6132  281.3542  -7.880      196.81 0.173
  262.7317  369.3575  -8.484  257.6096  281.9288  -8.484      341.01 0.094
  341.3367  374.4987 -10.102  336.8203  282.2464 -10.101     1672.04 0.034
  767.3648  401.7879  -8.322  765.5391  283.4646  -8.317      243.84 0.158
  789.1875  403.5417  -7.183  787.4666  283.8833  -7.178      107.43 0.185
  391.8240  381.1036  -7.761  387.6602  285.7487  -7.760      181.63 0.174
   34.7516  360.5837  -7.800   27.6435  287.1262  -7.802      174.86 0.178
   96.5625  363.9883 -10.573   90.0155  286.7431 -10.575     2677.76 0.042
  872.6369  413.1473  -6.827  871.2836  288.3743  -6.821       84.52 0.334
  918.9243  415.3946  -8.348  917.7787  287.7874  -8.342      310.01 0.095
  236.3538  375.2201  -8.333  230.9782  289.4015  -8.333      287.32 0.176
  224.3910  375.8704  -8.694  218.9100  290.7847  -8.694      458.95 0.092
  480.3753  391.5870 -10.195  476.7924  290.7934 -10.193     1763.86 0.050
  564.5924  397.1033  -8.169  561.5467  291.1490  -8.167      245.15 0.151
  107.7309  370.2135  -7.377  101.2497  292.2792  -7.379      139.02 0.193
  213.9330  376.8082  -6.229  208.3571  292.3630  -6.230       44.65 0.440
  368.0387  386.0135  -6.853  363.6691  292.1079  -6.852       76.60 0.253
   99.8674  370.0846 -10.433   93.3146  292.6319 -10.434     1831.35 0.140
  153.2011  373.9920  -6.282  147.1095  293.2699  -6.283       54.89 0.316
  849.2523  415.9231  -6.064  847.7797  292.5684  -6.059       47.18 0.482
  459.5731  392.9495  -7.765  455.8402  293.4266  -7.764      166.49 0.142
  487.5917  395.5962 -10.653  484.0391  294.3537 -10.651     2675.98 0.034
  973.6075  424.5154  -7.877  972.6707  293.5400  -7.870      180.31 0.121
 1001.6597  426.4088  -8.015 1000.8311  293.7150  -8.009      234.55 0.126
  167.6085  376.2547  -7.398  161.6318  294.6482  -7.399      121.72 0.229
  925.5661  423.2016  -8.963  924.4244  295.1651  -8.957      508.47 0.109
  633.4734  405.7486  -6.685  630.8307  295.5683  -6.681       66.11 0.330
  282.5704  386.5764 -10.293  277.5190  297.9093 -10.293     1842.84 0.032
  638.9361  408.9404  -6.815  636.3137  298.4192  -6.812       88.65 0.472
  779.1267  417.3208  -8.274  777.3022  298.2397  -8.269      309.98 0.109
  528.4943  402.8044 -10.513  525.1822  299.0453 -10.510     2493.24 0.041
  835.3337  421.7363 -10.212  833.7739  299.2143 -10.207     1758.29 0.150
  858.0375  423.7845  -7.197  856.5789  299.8719  -7.191       87.67 0.234
  738.2660  417.6334  -6.299  736.2240  301.0453  -6.295       46.96 0.455
  830.1923  423.7492 -11.751  828.6003  301.5354 -11.746     6248.43 0.031
  792.1745  422.3716  -7.897  790.3978  302.4814  -7.892      180.32 0.124
  901.0842  429.6526  -6.396  899.8090  303.0932  -6.390       59.79 0.297
  170.2237  385.3895  -7.240  164.2180  303.6141  -7.241      125.09 0.251
  307.0800  394.3369  -7.063  302.1870  304.1564  -7.063      103.07 0.218
  391.3732  399.5598  -7.830  387.1119  304.2035  -7.829      198.57 0.164
  420.9885  400.6192  -7.459  416.9436  303.4460  -7.457      138.35 0.205
  321.5281  395.7537 -10.070  316.7436  304.6853 -10.070     1550.94 0.039
  821.9533  428.2231  -7.624  820.3047  306.5001  -7.619      147.05 0.277
  439.3789  405.9281  -7.253  435.4400  307.6200  -7.252       83.71 0.469
  522.8926  411.1432  -9.980  519.5055  307.7120  -9.977     1261.41 0.035
  330.8120  400.4767  -7.196  326.0765  308.8326  -7.196      118.49 0.217
  554.9890  414.1332  -9.477  551.8040  308.7327  -9.474      860.87 0.057
   18.2977  383.0140  -6.653   10.8918  310.5432  -6.655       76.69 0.338
   72.9571  385.1179  -6.841   66.0629  309.3033  -6.843       79.17 0.297
  733.7742  425.9917  -7.233  731.6743  309.6579  -7.229      108.98 0.218
  668.5550  423.1411  -9.514  666.0544  310.7775  -9.511     1006.86 0.057
  421.6234  409.4720  -6.038  417.5387  312.2459  -6.036       40.51 0.423
  847.2415  435.3047  -8.024  845.6910  312.0191  -8.019      232.02 0.164
  273.4770  400.7529  -9.769  268.2738  312.6267  -9.769     1185.65 0.039
  517.2415  416.1417  -8.048  513.7938  313.0477  -8.046      213.50 0.169
  952.5843  442.3990 -10.498  951.4991  312.6540 -10.492     1883.21 0.049
  176.3502  395.9942  -8.874  170.3385  313.8338  -8.875      440.64 0.202
  185.2768  396.7717  -7.573  179.3395  314.0635  -7.574      161.15 0.209
  433.8218  411.7872  -8.912  429.8140  313.8102  -8.911      512.75 0.086
  757.5663  431.7669 -10.394  755.5725  313.9663 -10.390     2027.29 0.039
  503.7480  417.3831  -7.566  500.2034  315.1134  -7.564      168.97 0.194
  586.7179  422.2034  -7.350  583.7072  314.8466  -7.347      142.67 0.238
  814.9291  436.4300  -9.799  813.2155  315.1143  -9.795     1255.73 0.040
  827.5940  437.1102  -9.034  825.9411  315.0194  -9.029      638.55 0.057
   32.8587  389.4067  -6.403   25.5544  316.0483  -6.405       61.21 0.430
  252.3673  402.3266  -9.483  246.9785  315.4947  -9.483      828.59 0.048
  146.6781  398.1865 -13.372  140.3882  317.8431 -13.374    31946.94 0.018
  192.0917  401.7235  -8.687  186.1864  318.5931  -8.688      407.09 0.084
  528.0314  426.1985  -8.629  524.6102  322.4264  -8.627      368.14 0.081
   22.0682  395.9963  -7.410   14.6209  323.2898  -7.412      139.41 0.182
  621.1502  432.9101  -8.823  618.3151  323.4249  -8.820      443.55 0.077
  347.8771  417.5685  -7.144  343.1870  324.8552  -7.143      118.60 0.188
  417.6351  422.1133  -8.088  413.4573  325.1128  -8.087      216.90 0.127
  741.4884  441.7541  -6.684  739.3679  324.9124  -6.680       75.72 0.407
  889.8418  451.4878 -10.649  888.4398  325.5545 -10.644     2220.06 0.040
  923.3949  453.6089  -9.269  922.1423  325.6168  -9.263      767.02 0.083
   36.7625  401.8070 -10.134   29.4196  328.2033 -10.136     1488.91 0.045
  721.5550  443.9626 -10.078  719.3146  328.3346 -10.075     1438.70 0.043
  437.1692  427.2075 -11.037  433.1092  329.0019 -11.036     4109.68 0.030
  450.9197  427.8197  -9.505  446.9560  328.7703  -9.503     1009.67 0.050
  750.5851  446.7457  -9.378  748.4948  329.3365  -9.374      696.74 0.041
  227.9851  414.8264  -7.912  222.3194  329.4797  -7.913      183.91 0.134
  645.6898  442.4693  -6.537  642.9688  331.4622  -6.534       59.95 0.443
  521.6640  435.1434 -10.452  518.1593  331.7465 -10.450     2312.65 0.029
   19.5713  405.2688  -8.543   12.0432  332.7132  -8.546      378.27 0.115
  433.0951  430.7905  -9.711  428.9877  332.8294  -9.710     1145.33 0.200
  540.6381  438.8664  -7.738  537.2454  334.3006  -7.736      179.19 0.126
  861.3515  458.4979  -6.429  859.7881  334.2889  -6.424       47.79 0.382
  687.8140  449.7129 -10.008  685.3207  336.1111 -10.005     1521.29 0.047
  804.8809  456.6191  -8.465  803.0417  335.8670  -8.461      359.72 0.110
  283.8890  425.8232  -8.737  278.6370  337.0303  -8.737      478.42 0.083
  960.6092  466.9244  -7.237  959.4791  336.6175  -7.232      107.16 0.237
  114.4697  416.9881  -7.004  107.7745  338.6076  -7.006       76.14 0.312
  201.4172  422.8849  -7.710  195.4751  339.1643  -7.711      162.77 0.150
  337.0624  431.6999 -11.335  332.2126  339.6335 -11.335     4902.12 0.017
  534.9476  444.1894  -6.352  531.4919  339.9636  -6.350       64.47 0.444
  659.2503  452.7026  -6.810  656.5709  340.8438  -6.807       70.88 0.396
  722.2439  456.9366  -8.727  719.9547  341.2383  -8.724      469.44 0.075
  497.4572  444.3534  -5.999  493.7437  342.4259  -5.998       36.76 0.476
  973.7508  473.3090  -9.074  972.6571  342.1796  -9.068      611.37 0.053
  525.4759  446.4522  -7.885  521.9456  342.8035  -7.883      235.59 0.146
   71.4108  420.0325  -6.496   64.2909  344.2939  -6.498       49.13 0.392
 1019.5265  478.2730  -7.672 1018.6097  344.3275  -7.666      184.60 0.181
  698.2591  459.0220  -8.085  695.7906  344.7598  -8.082      255.81 0.090
  919.2465  472.6143  -6.700  917.9115  344.8238  -6.694       82.04 0.269
  120.9266  424.6639  -7.271  114.2463  345.8827  -7.273      113.89 0.311
  643.8336  459.5653  -7.762  641.0294  348.6372  -7.759      196.50 0.116
  115.9002  428.2305  -8.744  109.1521  349.7561  -8.746      464.20 0.062
  488.7957  451.3438  -8.433  484.9886  349.9370  -8.431      357.47 0.103
  764.3936  468.4413  -7.994  762.2939  350.1386  -7.990      224.53 0.130
 1000.3249  484.0493  -7.230  999.3106  351.2625  -7.224       99.95 0.297
  440.7009  450.6070  -7.459  436.5513  352.1517  -7.458      138.39 0.204
 1013.5423  485.3224  -5.745 1012.5793  351.7226  -5.739       35.90 0.497
   96.5517  430.7506  -6.792   89.6068  353.4633  -6.794       67.72 0.268
  181.4501  435.4136  -7.251  175.2602  352.9098  -7.253      117.89 0.251
  359.2335  446.7734  -7.757  354.4811  353.3274  -7.757      162.64 0.180
  451.5478  452.3635  -7.984  447.4689  353.2404  -7.983      214.55 0.151
  671.8478  466.4296  -8.329  669.1893  353.7704  -8.326      330.56 0.134
   25.4264  427.7131  -6.940   17.8206  354.7939  -6.943       74.52 0.285
  103.0190  432.3278  -7.191   96.1259  354.6425  -7.193      131.00 0.226
  900.9361  482.1796  -6.716  899.4831  355.4855  -6.711       58.05 0.324
  370.2841  449.7406 -11.266  365.6032  355.6121 -11.266     4181.24 0.029
  818.3553  478.0439  -9.187  816.5071  356.4165  -9.182      569.19 0.063
   78.1068  433.5511  -9.895   70.9695  357.3958  -9.897     1246.73 0.050
  679.4122  470.0830  -9.596  676.7852  356.9524  -9.593     1079.14 0.051
  709.4356  471.7270  -8.385  707.0122  356.7824  -8.382      379.60 0.110
  504.8471  459.9672  -9.451  501.1124  357.5633  -9.450      832.71 0.050
  232.0094  444.2404  -7.333  226.2160  358.6215  -7.334      111.94 0.215
  356.0253  451.8568  -8.509  351.2212  358.6024  -8.508      525.68 0.475
  433.9040  459.4199  -6.076  429.6606  361.3701  -6.076       46.60 0.452
  512.6835  463.9232  -9.390  508.9852  361.0328  -9.388      914.25 0.057
  533.2145  465.4152 -10.761  529.6511  361.2629 -10.759     2811.53 0.037
  670.9785  473.5757 -11.331  668.2854  360.9553 -11.328     5151.93 0.024
  805.2036  481.3933  -7.103  803.2742  360.5632  -7.099      100.55 0.227
  150.9601  442.7593  -8.227  144.4517  362.1238  -8.229      241.56 0.210
   44.4390  437.0273  -7.545   36.9544  362.9400  -7.548      186.62 0.147
  633.3223  473.3540  -6.090  630.3935  363.0442  -6.088       41.55 0.419
 1003.5268  495.6716  -6.321 1002.4898  362.6559  -6.315       45.16 0.448
  687.0198  477.7338  -9.678  684.4080  364.1208  -9.675      983.03 0.048
  128.3366  444.0295  -8.173  121.6117  364.7834  -8.175      217.70 0.274
  984.9487  497.0591 -10.499  983.8272  365.1780 -10.493     2489.25 0.037
   37.5548  439.3556  -7.753   29.9882  365.6910  -7.756      148.58 0.211
   61.0766  440.8558  -9.481   53.7309  365.7448  -9.484      929.99 0.061
  138.2369  445.7301  -7.661  131.5941  365.8749  -7.663      161.46 0.191
  411.1299  462.3510  -6.829  406.7005  365.6966  -6.829       90.48 0.424
  702.6914  480.6972  -7.693  700.1914  366.1482  -7.690      168.79 0.199
  870.7758  490.7287  -6.321  869.1473  365.8614  -6.316       60.54 0.354
  351.5462  459.9040  -8.894  346.6646  366.9166  -8.894      539.59 0.053
  760.4679  485.0085  -9.420  758.2822  366.9106  -9.416      862.62 0.055
 1014.0395  500.4147  -6.677 1013.0323  366.7414  -6.671       69.45 0.321
  150.9115  448.6510 -10.028  144.3687  368.0154 -10.030     1439.06 0.038
  906.2198  494.9351  -7.981  904.7490  367.8847  -7.976      203.84 0.220
  892.3432  495.1768 -12.234  890.8051  368.9764 -12.229    12312.68 0.020
  207.7058  454.4211  -7.606  201.6430  370.2912  -7.607      135.69 0.206
  240.9730  456.3292  -8.715  235.1908  370.1495  -8.716      434.70 0.115
  343.0663  462.7852  -8.936  338.1018  370.3164  -8.936      524.12 0.076
  158.7402  452.2027  -6.262  152.2488  371.0843  -6.264       42.44 0.467
  827.4998  493.2894  -9.133  825.6436  371.0667  -9.128      616.27 0.093
  129.1580  450.6621  -7.636  122.4020  371.3627  -7.638      143.43 0.179
  486.3668  473.6551  -7.323  482.4373  372.3664  -7.322      103.72 0.207
  680.1196  485.6565  -7.560  677.4333  372.4511  -7.557      129.33 0.210
  525.8822  476.2691 -10.671  522.2192  372.5511 -10.669     2550.74 0.031
  729.1685  489.5831  -7.183  726.7870  373.3940  -7.179       84.36 0.289
  931.9600  501.4664  -8.685  930.5880  372.8214  -8.680      428.15 0.127
  926.5621  501.9345  -9.853  925.1635  373.6193  -9.848     1255.96 0.041
  606.3553  484.0375 -13.775  603.2059  375.3645 -13.773    45384.50 0.019
  409.3956  472.0996  -7.873  404.9037  375.5404  -7.872      197.86 0.137
  251.0234  463.7775  -9.668  245.2872  376.9737  -9.669     1068.05 0.052
  836.7463  500.3206  -6.687  834.9127  377.5153  -6.682       69.38 0.421
  913.0516  505.7972  -9.662  911.5768  378.3007  -9.657      951.50 0.044
  467.6566  479.0167  -8.435  463.5662  378.8700  -8.434      329.20 0.097
  783.9579  499.9267  -9.246  781.8447  380.3579  -9.243      680.43 0.061
   86.5246  457.4530  -9.795   79.3246  380.7728  -9.798     1188.82 0.049
   71.2606  457.9734  -7.230   63.9100  382.2320  -7.233      108.36 0.205
  888.8045  507.4060  -6.573  887.2078  381.3927  -6.569       73.35 0.457
  919.9689  511.0312  -6.834  918.5092  383.0976  -6.829       83.14 0.320
  965.3446  513.5214  -6.848  964.0842  382.7986  -6.843       71.40 0.356
   22.2879  456.2220  -8.956   14.4788  383.4951  -8.959      414.73 0.102
  311.1205  474.6477  -6.423  305.8334  384.1344  -6.424       59.78 0.343
  478.3628  485.8756  -7.856  474.3177  385.0628  -7.855      215.16 0.125
  236.3031  472.0500  -6.152  230.3939  386.1476  -6.153       45.16 0.481
  626.4918  497.4119  -9.473  623.4172  387.4793  -9.471      707.23 0.059
  241.4985  474.5346  -6.323  235.6209  388.3106  -6.324       51.49 0.340
  372.0328  483.2038  -9.499  367.1934  388.9325  -9.499     1026.23 0.051
  858.7694  513.9444  -9.476  857.0007  389.7581  -9.471      963.50 0.059
  274.6565  479.3028  -8.283  269.0382  391.0324  -8.284      310.97 0.117
  560.1940  497.2899  -7.930  556.6754  391.4339  -7.929      196.10 0.142
  956.0167  522.6817 -10.125  954.6847  392.5079 -10.119     1447.24 0.040
  197.2865  476.9678  -6.900  191.0048  393.4674  -6.901       80.78 0.339
  721.7976  509.7123 -10.347  719.2915  393.9374 -10.344     2143.89 0.035
   16.2130  467.8375  -8.651    8.2725  395.4860  -8.655      379.87 0.105
  691.9406  512.9349  -7.448  689.2162  398.9512  -7.446      144.69 0.189
  797.0556  519.9089  -6.500  794.9390  399.4957  -6.496       59.91 0.399
  307.5365  489.8079  -8.200  302.1391  399.5038  -8.200      259.45 0.099
  877.8749  525.1920  -7.391  876.1635  399.8081  -7.386      155.34 0.268
  507.6995  503.4186  -6.604  503.7839  400.7823  -6.603       67.06 0.381
   81.2158  477.9041  -8.765   73.8418  401.5472  -8.768      461.88 0.092
  884.6212  527.5283  -9.405  882.9351  401.7251  -9.401      905.54 0.052
  461.2076  502.9414  -7.372  456.9547  403.1631  -7.372      128.67 0.250
  634.3765  513.1776  -7.519  631.2863  402.7347  -7.517      136.30 0.186
  721.4268  519.1291  -7.893  718.8812  403.3601  -7.890      206.68 0.156
  972.6627  533.8628 -10.575  971.3693  402.6398 -10.569     1992.89 0.200
  465.6597  504.3570  -7.319  461.4332  404.3035  -7.318       94.67 0.285
   91.5797  482.0633 -10.496   84.2813  405.0682 -10.498     2410.79 0.030
  349.9683  498.2544 -13.846  344.8750  405.3291 -13.846    50343.28 0.022
  443.8543  503.6649  -6.898  439.4680  404.9527  -6.898       74.72 0.433
  699.7625  519.6022  -6.756  697.0587  405.1266  -6.754       74.28 0.278
  190.8524  489.3166  -9.251  184.4427  406.2072  -9.253      650.88 0.076
  203.2020  489.8268  -9.202  196.9011  405.9563  -9.203      778.72 0.067
  238.0471  492.2965  -8.540  232.0416  406.2756  -8.542      351.47 0.103
  811.8191  526.9509 -11.220  809.7568  405.6175 -11.217     4214.48 0.032
  413.1428  504.1708 -10.630  408.5195  407.3474 -10.630     2269.60 0.039
  743.9864  524.6183  -9.482  741.5521  407.4542  -9.479      722.25 0.059
   19.9244  480.5527  -8.506   11.9415  407.9743  -8.509      410.09 0.124
  251.3469  494.5030 -10.089  245.4454  407.6607 -10.090     1408.90 0.030
  310.3132  498.9376 -10.283  304.8907  408.4560 -10.283     1769.31 0.035
  601.8414  516.4073  -6.227  598.5220  407.9622  -6.225       41.54 0.458
 1020.7286  541.5855  -6.345 1019.6245  407.3910  -6.339       51.86 0.339
  569.6043  515.2254  -6.718  566.0706  408.7664  -6.716       77.60 0.397
  119.5982  488.9635  -8.734  112.5277  410.2422  -8.736      388.90 0.099
  335.9030  503.8349  -7.319  330.6665  411.7724  -7.319      122.49 0.314
  145.9935  493.5377  -6.445  139.1455  413.1899  -6.447       58.58 0.462
  731.8349  529.0702  -7.008  729.3124  412.6445  -7.005       87.33 0.291
  987.0534  546.2093 -10.761  985.7862  414.0723 -10.755     3067.36 0.023
   33.2174  488.2020  -6.639   25.3070  414.8040  -6.642       84.72 0.402
  682.4090  528.6607  -7.911  679.5601  415.2388  -7.908      192.83 0.119
  967.9381  546.2496  -8.124  966.5845  415.2867  -8.119      225.53 0.146
  421.8017  513.2428  -7.530  417.2013  415.8774  -7.530      153.79 0.169
  710.6266  530.8795  -6.980  707.9709  415.7536  -6.978       91.91 0.348
  857.1043  539.8000  -7.057  855.2344  415.6604  -7.053      111.13 0.253
  766.2926  535.7557  -9.638  763.9443  417.2013  -9.635     1111.85 0.054
  413.3040  515.0758 -10.399  408.6289  418.2326 -10.399     1950.16 0.032
  870.6020  543.1843  -7.102  868.7892  418.2089  -7.098       86.74 0.265
  108.6082  496.9230  -7.821  101.3856  418.8787  -7.823      170.51 0.216
  730.4592  536.9325  -8.442  727.8984  420.5778  -8.439      345.08 0.079
  114.7388  500.1800 -10.293  107.5558  421.7578 -10.295     1807.34 0.038
  145.6318  502.0974  -8.855  138.7307  421.7708  -8.858      474.31 0.104
  443.0277  520.1075  -8.482  438.5564  421.4301  -8.481      286.32 0.113
  604.2441  530.3179  -6.560  600.8798  421.7065  -6.558       63.52 0.424
  908.2716  549.0663  -7.654  906.6271  421.7632  -7.649      166.50 0.127
  491.6078  524.9069 -10.794  487.4755  423.2363 -10.793     2679.68 0.037
  517.8107  526.2665 -10.490  513.8616  422.9828 -10.489     2515.48 0.033
  851.5829  546.8404  -9.359  849.6587  423.0257  -9.355      825.15 0.062
  766.3969  543.1844  -7.129  764.0210  424.6104  -7.126      108.69 0.267
  779.6779  544.2038  -9.912  777.3734  424.8119  -9.909     1295.40 0.057
  866.6326  550.9154  -9.249  864.7715  426.1681  -9.245      729.92 0.068
  660.5164  538.5112  -7.084  657.4872  426.4230  -7.082       91.18 0.231
  679.3062  539.7615  -8.671  676.3915  426.5143  -8.669      348.06 0.085
 1004.6712  560.7014  -6.484 1003.4388  427.4462  -6.479       43.99 0.473
  810.3728  549.4064  -6.867  808.2192  428.1187  -6.863       83.63 0.412
   22.5124  501.9116  -7.601   14.4201  429.1782  -7.605      147.76 0.205
  313.7192  519.3080  -8.858  308.2178  428.6041  -8.859      501.02 0.069
  632.4852  539.6956 -10.631  629.2684  429.3324 -10.629     2462.70 0.026
  650.1343  540.0888  -9.464  647.0314  428.6379  -9.462      906.50 0.053
  949.2422  559.0989 -10.383  947.7612  429.2553 -10.378     2112.95 0.039
  408.3820  526.5316  -7.158  403.6126  429.9822  -7.158      118.83 0.278
  321.5515  522.0814  -9.420  316.1011  430.8926  -9.420      935.40 0.058
  261.9434  520.4724 -10.597  255.9926  432.9645 -10.599     2643.52 0.074
  539.0184  537.4610  -6.897  535.1691  432.8602  -6.896       83.04 0.274
  686.5932  546.9334  -7.412  683.6945  433.2271  -7.409      125.70 0.223
 1017.3559  566.5104  -6.626 1016.1622  432.4612  -6.620       58.21 0.296
  112.2456  512.6262  -7.505  104.9652  434.3585  -7.507      124.01 0.253
  278.3845  522.4358 -10.275  272.5656  433.9119 -10.276     1843.74 0.046
  662.7018  546.7924  -7.053  659.6517  434.5582  -7.051       86.20 0.202
  142.0226  515.7877  -7.493  135.0080  435.6831  -7.495      142.96 0.170
  713.1290  551.1090  -8.819  710.4098  435.7966  -8.816      441.29 0.084
  841.9408  558.7534  -7.523  839.9224  435.5081  -7.519      137.92 0.201
  847.5935  559.8416  -6.988  845.6010  436.2467  -6.984       83.73 0.264
  236.8881  522.4602  -7.552  230.7059  436.4992  -7.554      138.58 0.193
  294.8775  527.4194  -8.289  289.1735  437.8748  -8.290      346.62 0.094
  581.8327  545.0427  -6.997  578.2503  437.7945  -6.995      104.14 0.229
  525.9616  543.8500  -7.607  521.9897  440.0468  -7.606      191.92 0.239
  889.2170  565.7198  -6.633  887.4191  439.5539  -6.629       66.86 0.369
  632.2563  551.4352  -6.770  628.9874  441.0712  -6.768       81.62 0.383
  779.0414  560.5570  -6.983  776.6717  441.1757  -6.980       76.10 0.272
  169.5539  523.9066  -7.027  162.7510  442.1030  -7.029       89.12 0.246
 1001.7569  575.4667  -8.122 1000.4666  442.3561  -8.117      213.35 0.107
  227.1370  528.2424  -9.862  220.8359  442.8823  -9.864     1343.67 0.054
  123.1537  524.1331  -6.736  115.9105  445.1935  -6.738       68.10 0.347
  188.2690  528.4388  -8.977  181.6138  445.4799  -8.979      448.20 0.100
  965.0065  575.6628  -6.402  963.5464  444.8132  -6.398       56.37 0.392
  258.2506  533.4645  -8.641  252.1967  446.1804  -8.642      430.11 0.094
  942.5852  575.0449  -6.878  941.0206  445.5761  -6.873       99.82 0.405
  510.4176  550.2127  -7.232  506.3044  447.3602  -7.231       98.99 0.162
   63.6723  523.0189  -8.912   55.8541  447.7521  -8.915      526.33 0.091
  433.6495  546.2119  -7.291  428.9813  448.0898  -7.291      129.41 0.285
  146.9639  529.6578  -6.215  139.9155  449.2487  -6.218       39.38 0.353
  558.4526  554.4639  -8.192  554.6644  448.6472  -8.191      252.57 0.119
  648.9183  560.1165  -9.236  645.7222  448.7147  -9.234      700.51 0.047
  724.7091  564.8287  -8.936  722.0064  448.7828  -8.933      556.48 0.079
  422.5805  547.0704 -10.172  417.8225  449.6294 -10.172     1671.81 0.033
  670.0007  562.4975  -7.313  666.9313  449.7929  -7.311      128.69 0.190
  890.3221  575.8399  -6.410  888.4943  449.5861  -6.405       48.71 0.431
  235.0033  537.3398  -6.584  228.7222  451.4916  -6.586       56.40 0.414
   40.5567  526.0689  -8.426   32.4881  452.2314  -8.430      302.01 0.099
  353.7059  544.6678  -8.027  348.4059  451.4815  -8.028      196.51 0.137
  400.8254  548.7654  -6.315  395.8871  452.6665  -6.315       66.43 0.365
  331.5954  545.8555  -8.964  326.1053  454.0346  -8.965      407.17 0.404
  468.0358  555.6613 -10.089  463.5841  455.4141 -10.088     1315.95 0.035
  160.6049  536.8770  -8.719  153.6436  455.6259  -8.721      414.64 0.096
  582.3907  562.8707  -6.972  578.7329  455.5688  -6.971       79.80 0.297
  764.0876  574.0469 -10.004  761.5814  455.5635 -10.001     1210.06 0.041
  564.6762  563.8789  -7.378  560.8895  457.6690  -7.377      135.65 0.235
  291.4351  547.9305  -8.301  285.5921  458.5909  -8.302      227.17 0.365
  885.6903  584.8572  -7.040  883.8066  458.8715  -7.036      119.01 0.236
  910.8141  586.5343  -8.057  909.0539  458.9981  -8.053      245.92 0.159
  687.5642  573.4235  -8.310  684.5616  459.6220  -8.308      259.57 0.106
  723.6704  577.5774 -10.407  720.9123  461.5767 -10.405     2070.03 0.024
  989.1546  594.9917  -6.681  987.7468  462.6136  -6.676       67.46 0.316
   83.0922  541.7775  -7.038   75.3538  465.3175  -7.041       80.84 0.338
  516.7934  568.3507  -8.192  512.6425  465.0899  -8.192      282.02 0.136
  897.8824  591.6117  -6.878  896.0384  464.8623  -6.874       88.46 0.270
  399.6911  561.7324  -8.892  394.6800  465.6958  -8.892      514.30 0.105
   94.4235  545.1160  -6.317   86.7770  467.9566  -6.321       55.38 0.481
  412.1664  564.1625  -6.899  407.2432  467.3536  -6.899       84.54 0.212
  201.8210  552.7337  -7.311  195.1533  468.9364  -7.313      117.69 0.270
  403.9025  565.2268  -8.955  398.9080  468.9280  -8.956      604.14 0.069
  790.1530  588.9096  -9.239  787.7396  468.7984  -9.236      735.77 0.072
  435.2053  568.3814  -8.253  430.4425  470.1482  -8.253      267.29 0.140
  693.4980  583.9611  -6.215  690.4895  469.7805  -6.213       48.89 0.460
  419.7144  567.9781 -10.853  414.8327  470.7004 -10.853     3166.97 0.056
  618.8461  580.8734  -6.591  615.3599  471.3035  -6.589       60.04 0.378
  181.7963  555.6166  -7.918  174.9265  473.0574  -7.920      240.79 0.236
  672.0051  585.7313  -6.699  668.8512  472.8750  -6.697       75.77 0.354
  721.5918  589.2360  -9.395  718.7761  473.3470  -9.393      799.32 0.046
  239.8277  559.8997  -7.218  233.4653  473.7500  -7.220      113.26 0.200
  555.3116  581.8202  -8.494  551.3773  476.1721  -8.493      348.16 0.095
  609.9270  584.7496  -7.405  606.3630  475.7264  -7.403      114.70 0.203
  900.4043  602.8226  -7.700  898.5344  475.8972  -7.696      149.85 0.204
  298.4831  567.0886  -9.014  292.5989  477.3080  -9.016      509.33 0.085
  481.2331  577.6129  -8.734  476.7769  476.5365  -8.734      407.91 0.124
  575.5409  583.8501  -9.129  571.7415  476.9511  -9.128      685.09 0.051
  684.8360  591.0539  -7.518  681.7427  477.3996  -7.516      131.20 0.268
  131.5534  557.1648  -7.530  124.1976  477.7130  -7.533      117.90 0.385
  181.9590  560.5137  -8.101  175.0629  477.9450  -8.104      231.40 0.344
  538.4187  582.3456  -7.576  534.3599  477.7405  -7.576      149.72 0.229
  826.0735  600.2118  -7.937  823.8175  477.8705  -7.933      233.46 0.140
  705.4606  594.0388  -6.209  702.5278  479.1375  -6.207       38.57 0.447
  803.1135  600.1379  -9.574  800.7310  479.2111  -9.571     1015.80 0.045
  927.9929  607.3470  -7.188  926.2493  478.7126  -7.184      118.00 0.267
  374.0978  574.2789 -10.781  368.8159  479.8185 -10.781     3114.50 0.023
  720.6587  595.4110  -9.459  717.8134  479.5713  -9.456      763.73 0.143
   71.7880  558.1534  -9.572   63.8387  482.4002  -9.575      859.79 0.082
  112.3417  560.6925  -8.006  104.7786  482.4306  -8.009      200.82 0.140
   64.0403  558.4036  -6.647   56.0118  483.1301  -6.651       89.31 0.391
  921.7078  611.4889  -5.874  919.9183  483.2343  -5.870       29.64 0.458
  911.8931  611.4309  -6.499  910.0533  483.7816  -6.495       44.29 0.444
  327.2585  576.3748  -8.845  321.5728  484.8114  -8.846      474.93 0.095
   46.1315  560.1030  -7.672   37.9116  485.9393  -7.676      172.37 0.152
  195.1888  569.2702  -9.538  188.3663  485.8841  -9.540      949.55 0.063
  280.1207  575.0525  -7.335  274.0338  486.4072  -7.336      115.10 0.207
 1017.9853  619.7821  -8.284 1016.6340  485.5743  -8.279      292.16 0.098
  105.0581  564.7948  -9.645   97.3993  486.9854  -9.648     1033.95 0.048
  374.4276  581.2785  -9.287  369.1132  486.7950  -9.288      789.77 0.076
  565.7537  594.3616 -10.952  561.8376  488.0584 -10.951     3804.14 0.032
  764.4474  606.9182  -7.443  761.8185  488.3642  -7.440      136.30 0.213
  157.7815  570.9778  -6.849  150.5970  489.9070  -6.852       61.83 0.314
  606.5047  598.9438  -6.456  602.8550  490.1189  -6.454       59.17 0.337
  128.7236  570.5536  -7.519  121.2621  491.2814  -7.522      135.40 0.152
  264.2063  578.2308  -6.690  257.9615  490.5708  -6.692       73.22 0.258
  319.1024  581.6957  -7.540  313.3190  490.6360  -7.541      125.01 0.241
  360.8131  584.5390 -11.192  355.3691  490.8969 -11.193     4216.83 0.037
  390.6194  587.7515  -8.522  385.4061  492.2637  -8.522      314.94 0.134
  421.8155  589.6315  -8.645  416.8458  492.2125  -8.646      432.25 0.098
  494.9061  593.7131  -5.919  490.4765  491.7833  -5.918       35.50 0.494
  947.8425  621.9696  -9.812  946.1507  492.0839  -9.808     1265.38 0.053
  333.3460  584.6987  -9.921  327.6690  492.7566  -9.922     1294.63 0.042
  790.1675  612.9578  -9.160  787.6639  492.8100  -9.157      672.69 0.039
  802.7544  613.8360  -8.374  800.3188  492.9109  -8.371      325.09 0.093
  856.4772  617.5427 -11.503  854.3213  493.3008 -11.499     5426.12 0.028
  414.1096  591.2942  -7.179  409.0699  494.3514  -7.180      110.98 0.263
  581.0344  601.3919  -7.473  577.1957  494.1388  -7.472      132.49 0.238
  429.2550  592.5560  -6.235  424.3295  494.6766  -6.235       45.97 0.414
  521.3726  598.1722 -11.557  517.1173  494.6072 -11.556     6029.83 0.025
  614.3702  605.0015  -6.412  610.7484  495.6854  -6.411       45.52 0.418
  638.6947  606.5166 -10.230  635.2322  495.6960 -10.228     1746.23 0.041
  701.3917  610.2109  -7.024  698.3406  495.5224  -7.022       79.15 0.442
  175.8543  578.8135 -11.122  168.7964  496.6259 -11.125     3746.91 0.054
  200.2858  581.4569  -6.698  193.4420  497.7571  -6.701       68.57 0.442
  787.6497  620.4903  -7.791  785.1036  500.4872  -7.788      160.73 0.161
  952.0407  629.6123  -9.220  950.3451  499.4536  -9.215      615.20 0.058
   54.1323  575.6081  -6.904   45.8993  500.9591  -6.908       81.33 0.369
  212.5894  585.1580  -7.002  205.8387  500.6963  -7.005       96.86 0.195
  483.2158  602.6579  -6.695  478.6568  501.4442  -6.695       60.81 0.278
  677.9995  614.6198 -10.575  674.7637  501.3627 -10.573     2375.28 0.031
  706.2458  615.6186  -9.010  703.2338  500.6426  -9.008      564.37 0.060
  225.8500  586.9962  -7.921  219.2110  501.7129  -7.923      219.88 0.177
  335.0796  594.3344  -7.528  329.3675  502.2832  -7.530      138.87 0.174
  715.8333  617.6200  -9.765  712.8725  502.0502  -9.763     1282.00 0.064
  889.7079  628.1871  -9.606  887.6926  501.8781  -9.602      918.69 0.200
  557.9664  608.5189  -8.740  553.9306  502.6865  -8.740      463.26 0.091
  123.7465  583.1517  -7.817  116.1626  504.1932  -7.820      184.19 0.404
  901.7767  631.1214  -7.903  899.8159  504.0626  -7.899      197.52 0.217
  662.8300  619.9653  -6.905  659.4718  507.6407  -6.904       75.66 0.359
   34.2839  582.5615  -8.824   25.8051  509.1483  -8.828      499.11 0.098
  229.9762  594.6053 -10.632  223.3327  509.0674 -10.634     2695.43 0.029
 1012.4214  643.9960  -6.433 1010.9717  510.0829  -6.428       50.12 0.453
  200.1084  594.8669  -6.089  193.1873  511.1810  -6.092       46.84 0.452
  339.7787  603.0183  -6.558  334.0619  510.6747  -6.559       66.89 0.478
  368.3565  605.0856  -7.164  362.8716  510.9713  -7.165      114.34 0.220
  604.0849  619.8014  -7.428  600.3270  511.1092  -7.427      139.94 0.148
  701.1444  625.1528  -7.259  698.0156  510.4552  -7.257      109.39 0.245
  419.3268  608.9735  -7.030  414.2434  511.7009  -7.031       89.23 0.241
  892.8128  639.0303  -6.865  890.7762  512.5123  -6.862       95.99 0.440
  978.4544  643.8968  -7.048  976.8447  512.0817  -7.043      106.14 0.310
  846.6119  636.7798  -6.472  844.3333  513.1171  -6.468       62.42 0.329
  953.5283  643.2621  -6.814  951.7961  512.9872  -6.809       90.42 0.346
  358.7119  607.7986  -8.477  353.1318  514.2815  -8.479      333.32 0.127
  106.6707  592.7783  -8.236   98.8621  514.8835  -8.239      286.61 0.219
  126.1313  594.1012  -6.479  118.5066  515.0005  -6.483       52.98 0.438
  298.5871  604.3255  -9.504  292.5060  514.5348  -9.506      713.04 0.067
  431.6184  612.8462  -8.771  426.6136  514.8129  -8.771      443.67 0.100
  100.7449  593.2286  -8.531   92.8749  515.7015  -8.535      385.65 0.063
  631.3818  627.2886  -9.139  627.7808  516.9021  -9.138      682.36 0.107
  744.1578  634.7135  -7.578  741.3024  517.3760  -7.576      150.27 0.233
  947.5578  647.0820  -9.179  945.7828  517.1693  -9.175      705.96 0.090
  189.9350  601.2303 -10.406  182.8823  518.1772 -10.409     2229.64 0.042
  305.2095  608.4572  -7.679  299.1646  518.2562  -7.681      198.25 0.196
  764.9210  636.1024  -9.341  762.1838  517.4817  -9.339      699.82 0.050
  312.3421  610.5207 -10.475  306.3487  519.8777 -10.476     2303.78 0.039
  525.1575  623.3967 -13.794  520.8143  519.5829 -13.794    45692.86 0.023
  896.3840  647.8498  -9.034  894.3370  521.0976  -9.031      583.76 0.068
  389.4364  616.9871  -7.279  384.0676  521.5650  -7.280      100.75 0.256
  450.9459  621.6413  -7.202  446.0496  522.4116  -7.203      103.86 0.262
  624.9439  631.9333  -8.032  621.2792  521.9411  -8.031      219.19 0.147
  845.6604  646.3792  -6.719  843.3427  522.7618  -6.716       61.16 0.415
   29.6728  596.1329  -9.728   21.0609  523.0088  -9.733     1162.01 0.073
  255.7161  610.4016  -6.918  249.2203  523.2708  -6.920       74.40 0.312
  758.1292  641.1858  -8.158  755.3320  522.9784  -8.156      280.57 0.147
  991.0525  655.8458 -12.009  989.4657  523.2309 -12.005     8128.85 0.018
   63.9138  599.0676  -6.470   55.6385  523.8290  -6.474       46.84 0.389
  776.7309  643.0175  -7.028  774.0364  523.6595  -7.025       88.81 0.310
  155.8169  606.2488  -6.773  148.4102  525.3136  -6.776       66.41 0.308
  567.0559  631.3448  -9.616  562.9844  524.9343  -9.615     1137.00 0.053
  263.6385  613.0383  -8.314  257.2000  525.4167  -8.317      260.91 0.126
  463.5569  626.2486  -7.849  458.7363  526.2381  -7.849      204.95 0.150
  857.5964  650.9277  -7.250  855.3273  526.5674  -7.247       99.26 0.297
  280.5810  617.0213  -7.530  274.2730  528.3494  -7.533      120.02 0.228
  679.8769  643.4589  -8.533  676.5352  530.0589  -8.531      352.35 0.150
  800.6992  651.2075  -8.341  798.1128  530.3597  -8.338      331.54 0.150
   56.2946  605.6148  -7.808   47.9021  530.8541  -7.812      195.26 0.138
  382.6311  625.8896  -8.241  377.1606  530.8887  -8.243      284.26 0.156
  712.0245  646.2498 -12.301  708.9252  530.8847 -12.299    13382.78 0.011
   67.1344  606.9092  -6.368   58.8447  531.4768  -6.372       60.87 0.469
  916.4040  660.2286  -6.882  914.4232  532.2202  -6.878       86.57 0.453
  239.1006  620.5102  -6.278  232.3979  534.4135  -6.281       44.82 0.461
  773.7028  654.5223 -10.612  770.9465  535.3381 -10.610     2492.86 0.028
   94.4583  612.7895 -12.793   86.4097  535.6656 -12.797    17542.23 0.019
  137.0292  615.2352  -9.798  129.3880  535.4707  -9.801      970.64 0.064
  506.9575  638.3815  -9.964  502.4108  535.6838  -9.964     1171.21 0.129
  207.3289  621.8036  -7.100  200.3238  537.6800  -7.103      101.11 0.165
  367.5593  633.9718  -7.330  361.9208  539.9058  -7.332      150.92 0.197
  468.4364  640.8190  -8.414  463.5841  540.5023  -8.414      268.98 0.078
  488.0205  641.2145  -8.158  483.3172  539.6865  -8.158      286.28 0.149
  694.5653  653.8711 -10.473  691.2783  539.5534 -10.472     1760.42 0.179
  972.8533  671.5042  -8.564  971.1278  539.9876  -8.560      446.94 0.096
 1002.7698  673.2396  -8.576 1001.1840  539.8699  -8.572      392.22 0.132
  378.0656  635.8658 -10.330  372.5063  541.1480 -10.331     1823.50 0.041
  404.2574  637.2909  -9.549  398.9097  540.9481  -9.550     1009.80 0.057
  745.7795  658.9102 -10.162  742.8382  541.4468 -10.161     1613.39 0.050
  951.1611  670.7372  -6.498  949.3279  540.5634  -6.494       54.32 0.414
  604.2031  650.7815  -7.095  600.3134  542.0589  -7.095      101.56 0.268
  510.3953  645.7759  -7.489  505.8405  542.8624  -7.489      138.67 0.195
  573.2386  650.0783  -7.367  569.1299  543.2732  -7.367      128.06 0.201
  184.7899  627.0087  -7.164  177.5422  544.2869  -7.167      103.99 0.278
  918.6463  671.9385  -7.113  916.6386  543.7740  -7.109       97.53 0.203
   70.2381  620.2949  -7.561   61.8998  544.6807  -7.566      171.53 0.161
  140.5353  624.9548  -9.117  132.8720  544.9790  -9.121      716.48 0.076
  236.1864  630.6506  -6.625  229.4011  544.7390  -6.628       68.17 0.294
  371.6279  639.4141  -8.050  365.9962  545.0961  -8.052      261.70 0.199
  321.8643  637.9280 -10.181  315.8113  546.6985 -10.183     1765.00 0.044
  542.2772  651.6499  -7.192  537.9337  546.7610  -7.192      131.71 0.222
  972.5339  678.2463  -7.757  970.7853  546.7387  -7.753      194.72 0.149
  439.0856  649.4417  -6.485  433.9609  550.9396  -6.486       69.50 0.497
  183.8774  635.7838  -8.323  176.5711  553.1237  -8.326      300.92 0.139
  712.1365  668.5201 -10.249  708.9468  553.1279 -10.248     1942.49 0.046
 1011.3271  687.4189  -6.509 1009.7376  553.4959  -6.505       53.00 0.333
  137.4834  634.7932  -6.620  129.7330  555.0139  -6.624       76.26 0.472
  872.0238  680.8609  -6.743  869.7299  555.5698  -6.740       67.72 0.420
  474.6171  656.1763  -7.081  469.7400  555.4735  -7.081       92.51 0.266
  724.2715  672.6002  -8.300  721.1420  556.4540  -8.299      268.83 0.166
  733.4822  672.4293  -8.585  730.4112  555.7135  -8.584      346.88 0.087
   25.0709  630.2028  -8.737   16.2074  557.3974  -8.742      438.17 0.100
  327.0908  648.9016  -8.721  321.0265  557.3503  -8.723      457.88 0.098
  602.5879  665.2482  -7.037  598.6249  556.6168  -7.036       86.23 0.237
  556.5299  663.3144 -12.461  552.2405  557.5370 -12.461    12983.09 0.024
  299.0454  648.5124  -9.706  292.7351  558.7033  -9.708     1128.86 0.047
  311.7115  649.6482  -8.232  305.5078  559.0525  -8.234      251.59 0.129
  772.0967  678.1001  -9.297  769.2403  558.9909  -9.295      755.75 0.070
  802.0753  679.6838 -10.530  799.3910  558.7189 -10.528     2201.36 0.046
  914.2258  686.7229 -10.773  912.1452  558.8113 -10.770     3097.58 0.035
  421.3633  656.9815 -13.577  416.0588  559.5769 -13.578    38041.49 0.017
  576.6584  666.9945  -9.339  572.5008  559.9683  -9.339      733.37 0.048
  864.1993  684.7872  -6.975  861.8488  559.9753  -6.972      108.58 0.304
  899.6770  686.6858  -8.888  897.5173  559.6751  -8.884      450.66 0.086
  933.2307  688.7394  -8.511  931.2451  559.6484  -8.507      352.36 0.125
  992.8519  693.1398  -7.782  991.1562  560.3513  -7.778      183.79 0.142
  262.5820  648.8320  -6.917  255.9403  561.2886  -6.920       76.04 0.407
  853.3030  685.3064  -7.473  850.8904  561.1676  -7.470      147.64 0.210
   83.1692  638.2671  -8.307   74.8552  561.8655  -8.311      330.15 0.095
  711.9994  676.9738  -9.625  708.7742  561.5832  -9.623     1006.53 0.066
   76.9224  638.9266  -7.426   68.5408  562.9139  -7.430      123.68 0.244
   93.3050  639.5473  -9.913   85.0862  562.5169  -9.918     1190.17 0.092
   24.8152  636.9020  -7.174   15.9090  564.1199  -7.179      113.40 0.298
  461.2422  663.5705  -9.499  456.2250  563.6948  -9.500      884.56 0.057
  678.4008  678.3168  -7.150  674.9081  564.9817  -7.149      114.22 0.257
  183.0773  649.7326  -9.868  175.6841  567.1314  -9.872     1239.65 0.061
  191.2567  652.1246  -8.610  183.9283  569.0167  -8.613      360.95 0.222
  289.5980  657.7496  -7.367  283.1540  568.5312  -7.369      119.70 0.309
  732.7909  685.9975  -7.124  729.6612  569.3132  -7.123       91.61 0.330
   72.0552  645.8695  -7.411   63.5823  570.1662  -7.416      117.50 0.243
  237.8261  656.2178  -6.467  230.9153  570.2171  -6.470       61.24 0.396
  634.0397  682.6358 -13.638  630.2253  572.0464 -13.638    43615.00 0.025
  541.8049  678.2312  -7.025  537.3392  573.3600  -7.025       88.19 0.240
  651.5736  684.2155  -9.366  647.8743  572.5388  -9.366      738.61 0.067
  695.7688  686.9012  -7.330  692.3575  572.4847  -7.329      106.74 0.200
  719.9675  688.3824  -6.899  716.7467  572.4900  -6.898       83.37 0.400
  757.7024  691.9416  -6.807  754.7046  573.7106  -6.806       74.07 0.277
  216.1783  659.8427  -7.254  209.0438  575.1905  -7.257      123.17 0.346
  586.3229  682.2525  -7.720  582.1695  574.6204  -7.719      165.08 0.193
  200.9661  659.6276  -7.311  193.6880  575.9214  -7.314      110.81 0.241
  735.1252  693.8965  -6.987  731.9786  577.0615  -6.986      115.78 0.269
  534.1282  682.7046  -6.919  529.5845  578.3078  -6.919       84.52 0.190
  839.6758  701.9052  -7.540  837.1279  578.5913  -7.537      144.94 0.178
  920.7112  708.5297  -8.416  918.5933  580.1882  -8.413      315.77 0.131
  728.3113  697.1454  -7.638  725.1083  580.7300  -7.637      178.26 0.177
  899.2874  707.4893 -11.419  897.0555  580.4770 -11.416     4949.08 0.026
  606.7952  690.7044  -8.585  602.7535  581.7998  -8.585      354.13 0.094
  832.2102  704.6653  -8.532  829.6097  581.8107  -8.530      335.82 0.104
  960.7035  712.3843 -13.988  958.7850  581.5592 -13.985    52561.65 0.028
  359.1666  676.9288  -6.959  353.2372  583.3927  -6.961       77.31 0.359
  684.5504  696.2561  -7.124  681.0266  582.5292  -7.124       92.97 0.299
  105.0543  661.8068  -7.481   96.8225  584.0670  -7.485      163.40 0.248
  400.0041  680.2180  -7.896  394.4063  584.1435  -7.898      197.15 0.137
  455.8326  684.0974  -7.516  450.6739  584.5564  -7.517      125.50 0.206
  125.5900  663.7010 -13.798  117.5533  584.6855 -13.802    42596.14 0.023
  860.7719  709.4059  -9.508  858.3171  584.7785  -9.506      930.32 0.052
   87.9465  662.4911  -7.767   79.5370  585.8164  -7.771      168.42 0.113
  163.1490  667.6719  -8.170  155.4603  586.3237  -8.174      227.34 0.092
  217.7270  670.7616  -9.431  210.5463  586.0206  -9.434      853.16 0.067
  327.3423  677.8281  -7.779  321.1301  586.2717  -7.781      186.92 0.131
  351.4285  678.7822  -7.804  345.4225  585.7280  -7.806      161.70 0.133
  413.0006  682.6096 -10.099  407.4997  585.7275 -10.100     1423.49 0.029
  892.1908  712.1288  -7.325  889.9038  585.5512  -7.322      106.76 0.309
  366.4278  680.3392  -6.358  360.5436  586.3527  -6.360       46.79 0.498
  692.4269  701.1883  -9.945  688.9361  586.9705  -9.944     1492.80 0.058
  428.0374  686.3818 -13.620  422.6422  588.5661 -13.621    35608.38 0.022
  570.0228  696.0280  -8.213  565.6895  589.4014  -8.213      262.33 0.122
  983.8170  721.4382  -9.550  981.9877  589.1681  -9.547      970.04 0.071
  765.0736  708.7071  -7.719  762.0563  590.0063  -7.718      202.77 0.168
  231.5832  676.7042  -8.735  224.5008  591.1052  -8.739      415.92 0.106
  788.9958  710.7574  -7.675  786.1172  590.5733  -7.673      166.80 0.169
  405.9506  688.0705  -8.490  400.3635  591.6281  -8.491      337.11 0.115
  749.6974  710.2384 -11.378  746.5780  592.4890 -11.376     4277.36 0.025
  916.9585  719.5852  -6.987  914.7835  591.4631  -6.984      101.40 0.411
  848.3461  716.3901  -9.855  845.7966  592.5251  -9.852     1144.77 0.051
 1007.5907  726.6022  -6.647 1005.8615  592.8507  -6.643       67.75 0.337
  140.4643  673.6224  -6.873  132.5179  593.6910  -6.877       74.48 0.397
  937.3128  723.3670 -10.592  935.2354  593.9780 -10.589     2641.34 0.040
  309.3277  685.1027  -9.267  302.9171  594.6708  -9.269      750.57 0.065
  267.9797  683.3444 -10.801  261.2013  595.4846 -10.804     2788.60 0.029
  826.2222  718.8652  -6.410  823.5356  596.3683  -6.408       40.74 0.357
  852.4662  722.1466  -8.909  849.9200  598.0209  -8.906      568.58 0.078
  334.0469  691.2696  -6.298  327.8242  599.3024  -6.301       43.44 0.416
  927.3066  727.6067 -10.404  925.1613  598.8334 -10.401     2368.21 0.047
   20.4182  672.8274  -8.132   11.2501  600.3633  -8.137      241.32 0.106
  256.7871  687.5712  -8.221  249.8818  600.4110  -8.224      258.01 0.116
  358.0525  693.8790  -6.276  352.0268  600.4189  -6.278       48.59 0.370
   97.0879  678.4479  -8.125   88.6768  601.2216  -8.129      268.45 0.142
  176.4471  683.1352  -7.136  168.7995  600.9733  -7.140      126.63 0.249
  915.6485  729.3068  -9.925  913.4340  601.2551  -9.922     1192.84 0.053
 1002.3496  735.3298  -9.797 1000.5677  601.8914  -9.794     1171.31 0.040
  396.5921  700.3029  -9.936  390.8648  604.4467  -9.938     1303.29 0.045
  624.8774  713.8243  -6.576  620.8672  603.7897  -6.576       89.44 0.365
  701.3419  718.8341  -8.802  697.8403  604.0547  -8.801      503.95 0.081
  761.0590  722.7827  -7.499  757.9620  604.3208  -7.498      150.51 0.287
   87.3403  681.5436  -9.593   78.8112  604.9279  -9.597     1096.00 0.055
  102.4660  682.0468  -8.001   94.0884  604.4897  -8.005      208.51 0.181
  528.8294  708.7222  -8.475  524.1284  604.6485  -8.475      354.40 0.132
  767.6505  724.2202  -7.831  764.5892  605.3487  -7.830      159.78 0.215
   56.7750  680.3750  -8.276   47.9366  605.6616  -8.281      300.69 0.117
  186.9943  689.2249  -7.441  179.4144  606.4121  -7.445      109.79 0.241
  355.7146  700.6944  -6.529  349.6336  607.3831  -6.532       58.62 0.399
  847.8316  730.3822  -7.163  845.2298  606.5362  -7.160       92.15 0.229
  247.7072  695.6540  -7.730  240.6727  609.0653  -7.734      180.58 0.120
  470.6447  709.4861  -7.132  465.4834  609.0274  -7.133       88.47 0.267
  757.2043  727.4306  -9.243  754.0648  609.2047  -9.241      823.09 0.075
  234.1275  696.1126  -6.707  226.9621  610.3702  -6.710       57.11 0.341
  395.6425  706.9818  -8.063  389.8737  611.1873  -8.065      212.32 0.209
  522.8615  716.4604 -10.311  518.0795  612.7567 -10.312     1997.41 0.047
  312.9416  704.2831  -7.688  306.4632  613.6376  -7.691      162.81 0.174
  536.8572  718.9781  -7.136  532.1717  614.4046  -7.136       98.54 0.238
  128.8708  694.3052 -10.416  120.6883  615.1173 -10.420     2114.08 0.042
  619.8637  724.2594  -9.575  615.7734  614.5330  -9.575      856.20 0.175
  635.0761  725.2858 -10.689  631.0905  614.6150 -10.689     2775.98 0.040
  372.8709  710.7008  -7.501  366.8880  616.3261  -7.503      142.32 0.158
  415.0446  713.3843 -10.844  409.4078  616.3841 -10.846     2653.41 0.036
  651.7357  727.3620 -11.070  647.8592  615.6569 -11.070     3857.64 0.035
  701.5567  730.6652  -6.671  698.0098  615.8677  -6.670       68.98 0.340
  247.0681  702.9988  -7.128  239.9874  616.4560  -7.131       97.19 0.269
  839.3626  739.7387  -7.011  836.6783  616.4099  -7.009       88.35 0.261
  846.4613  740.7869  -7.917  843.8148  617.0171  -7.915      248.80 0.114
   24.4375  690.7897  -6.929   15.2049  618.1006  -6.934       82.68 0.303
  715.3099  733.9470 -10.089  711.8733  618.3161 -10.088     1599.27 0.046
  931.6592  747.4384  -9.375  929.4722  618.3734  -9.372      699.92 0.063
  976.5365  749.4496  -7.112  974.5812  617.5957  -7.109       99.55 0.275
   38.3127  692.8840  -8.609   29.2044  619.3375  -8.615      363.05 0.066
  141.0017  699.1832  -9.234  132.9123  619.2449  -9.238      729.53 0.081
  465.2109  718.5719  -7.312  459.9626  618.4525  -7.313      114.30 0.215
  610.6574  729.4973 -13.918  606.4783  620.3411 -13.918    45443.68 0.027
  665.0875  731.9690  -7.691  661.2854  619.4338  -7.691      158.36 0.158
 1015.0454  754.1815  -6.411 1013.2665  619.9306  -6.407       57.22 0.336
  589.0655  729.2749  -8.373  584.7288  621.4591  -8.374      321.81 0.112
  363.8969  715.2936  -8.696  357.8127  621.4803  -8.699      366.78 0.095
  674.9443  735.3394  -7.568  671.1968  622.1915  -7.568      187.72 0.197
  729.3576  738.2583  -9.958  725.9959  621.7538  -9.957     1396.38 0.270
  750.8760  740.4985 -14.389  747.6450  622.6576 -14.388   563683.25 0.000
  843.0625  745.5215  -7.873  840.3794  621.9587  -7.871      204.19 0.145
  510.0879  726.0386  -7.146  505.1627  623.1291  -7.146      113.26 0.247
  779.9817  742.1952  -8.325  776.9285  622.5476  -8.323      339.07 0.116
  816.3527  745.0497  -9.198  813.5123  623.1439  -9.196      590.46 0.082
  981.7056  754.8949  -8.106  979.7596  622.7136  -8.103      270.30 0.115
  920.5938  751.8506  -6.354  918.3317  623.4684  -6.351       58.67 0.443
   92.6784  704.0607  -7.565   84.0704  627.1401  -7.570      157.15 0.145
  382.7293  721.8422 -10.045  376.7751  626.8590 -10.048     1565.29 0.044
   75.7628  703.6952  -6.626   66.9821  627.8288  -6.631       69.32 0.370
  320.0501  718.6952  -7.046  313.5602  627.6166  -7.049       85.99 0.298
  335.6990  719.6704  -8.301  329.3440  627.6171  -8.304      276.25 0.104
  995.1435  761.1065  -8.771  993.2453  628.0831  -8.768      462.86 0.146
  346.7601  723.0964  -8.347  340.4854  630.3558  -8.350      248.18 0.137
  474.7171  730.9159  -6.362  469.4870  630.2083  -6.364       47.40 0.439
  188.9826  713.8034 -10.091  181.2827  630.8911 -10.095     1619.98 0.043
  267.6811  718.4742 -10.696  260.7101  630.6598 -10.699     2585.05 0.042
  567.2935  737.3875  -6.914  562.7579  630.9236  -6.914       97.58 0.285
  968.4606  763.4385  -9.983  966.4185  632.0699  -9.980     1375.53 0.104
  612.3225  742.5372 -11.320  608.0993  633.2762 -11.320     4863.10 0.047
  652.7288  745.0315  -9.469  648.7856  633.2605  -9.469      919.62 0.054
  287.3281  722.4944  -8.980  280.5185  633.4586  -8.983      455.49 0.055
  176.0064  717.8572  -9.457  168.1566  635.7582  -9.461      868.78 0.069
  477.2160  737.1623  -7.817  471.9764  636.3016  -7.819      179.63 0.167
  749.0388  754.0424  -9.706  745.7436  636.3091  -9.705      962.23 0.077
  776.8342  755.4249  -8.629  773.7113  635.9651  -8.628      449.53 0.092
  891.0432  763.0527  -7.260  888.5771  636.4962  -7.257      115.50 0.274
  487.4184  738.7843  -7.943  482.2533  637.2890  -7.944      197.99 0.150
  574.7827  744.0248  -8.411  570.2739  637.0963  -8.411      345.50 0.111
  217.6565  722.1101  -9.511  210.1888  637.4184  -9.515      791.72 0.094
  427.3386  735.8014  -6.532  421.6948  638.0457  -6.534       60.37 0.412
  884.9105  764.5123  -7.121  882.4041  638.3357  -7.119       79.58 0.243
  972.9950  769.7400 -12.869  970.9565  638.0824 -12.866    22486.02 0.018
   63.3314  713.5503  -7.914   54.3618  638.4733  -7.920      174.45 0.187
  150.3912  719.3120  -7.067  142.2793  638.8120  -7.071       94.93 0.299
  247.7322  725.3385  -7.506  240.5353  638.7742  -7.510      131.75 0.211
  252.8247  725.6905  -7.529  245.6742  638.8089  -7.533      135.32 0.269
   49.3205  713.9810  -7.909   40.2007  639.7789  -7.914      220.87 0.131
   81.3870  716.9048  -6.462   72.5859  640.7062  -6.467       54.48 0.409
  170.0532  722.8863  -8.461  162.1161  641.1643  -8.465      380.77 0.139
  500.3965  743.1703  -9.462  495.3146  640.8686  -9.463      913.82 0.052
  841.8499  765.5195  -6.326  839.0883  642.0169  -6.324       50.80 0.435
  267.3804  731.0776  -9.255  260.3379  643.2933  -9.258      625.22 0.144
  330.2848  734.9157  -7.855  323.8012  643.2112  -7.858      204.45 0.125
  992.9975  776.3706 -14.249  991.0410  643.4620 -14.246   494211.62 0.000
   33.9783  717.2179  -8.898   24.6757  643.9783  -8.903      501.94 0.085
  863.4197  769.0935  -6.992  860.7723  644.2491  -6.990       92.34 0.406
  789.4870  764.8297  -6.422  786.4084  644.5793  -6.421       56.73 0.324
  808.5003  766.9152  -6.653  805.5320  645.4828  -6.652       55.69 0.344
  139.8855  725.4314  -7.320  131.6329  645.5944  -7.324      111.63 0.290
  323.9199  737.1372  -7.161  317.3672  645.8315  -7.164      110.47 0.226
  432.1764  744.4866  -6.572  426.5308  646.4343  -6.574       53.70 0.487
  159.6256  728.3464  -8.831  151.5539  647.2814  -8.836      401.52 0.114
  181.3870  729.2034  -8.668  173.5256  646.7818  -8.672      387.51 0.076
  932.7521  778.1199  -6.641  930.4697  648.9556  -6.639       56.48 0.436
   78.0665  726.2792  -7.914   69.1750  650.3015  -7.919      206.15 0.161
  207.1469  734.6816  -9.104  199.5068  650.6591  -9.108      547.24 0.082
  440.6747  749.8984  -7.999  435.0739  651.3198  -8.001      218.38 0.142
  281.1373  740.7626  -6.304  274.1713  652.1292  -6.307       46.40 0.406
  409.4373  748.5958  -9.998  403.5789  651.9637 -10.000     1417.62 0.058
  658.4557  764.5482  -6.505  654.4708  652.4189  -6.505       45.55 0.447
  569.2906  760.2079  -6.966  564.6675  653.6239  -6.967       92.88 0.340
  619.5400  765.3151  -8.333  615.2707  655.6060  -8.333      277.53 0.143
  712.2382  771.8457  -8.519  708.6303  656.3937  -8.519      308.32 0.101
  178.4234  739.0787  -7.822  170.4768  656.8540  -7.827      165.81 0.200
  544.7620  762.4901  -8.122  539.9395  657.4331  -8.123      231.17 0.103
  816.5081  778.4664  -7.118  813.5466  656.5300  -7.116       83.96 0.274
  918.6820  785.7782  -7.634  916.2957  657.4824  -7.631      135.78 0.179
  188.9956  741.5185  -6.885  181.1394  658.6368  -6.889       85.08 0.292
  882.2813  785.3105  -8.469  879.6877  659.2809  -8.467      309.29 0.087
  291.8599  750.5887  -7.356  284.9409  661.2958  -7.360      114.60 0.261
  470.1082  761.0108 -11.472  464.6971  660.6043 -11.473     5253.36 0.023
  763.3315  779.6775  -8.710  760.0306  661.0463  -8.709      518.75 0.111
  967.6711  792.3248  -6.839  965.5322  660.9740  -6.836       98.38 0.468
  769.2270  781.7499  -6.553  765.9563  662.7515  -6.552       61.08 0.447
  118.5272  742.4031  -9.204  109.9589  663.9229  -9.209      740.70 0.094
  454.8821  765.1889  -8.415  449.3256  665.7340  -8.417      318.24 0.115
  604.5578  774.2923  -8.315  600.1384  665.5167  -8.316      287.94 0.114
  281.6988  756.0173  -6.788  274.6555  667.3642  -6.792       58.36 0.312
  396.1630  762.6597 -10.155  390.1201  666.8659 -10.157     1775.55 0.044
   44.4886  741.9317  -7.567   35.1480  668.0765  -7.573      187.71 0.218
  733.1336  784.5882  -7.142  729.6158  667.8341  -7.142       88.89 0.323
  431.5696  766.8673  -9.691  425.8100  668.8670  -9.693     1172.77 0.036
  961.1032  800.1072  -8.019  958.9039  669.1579  -8.016      251.76 0.113
  231.9584  755.0662  -7.500  224.4461  669.5181  -7.504      136.17 0.262
  513.3996  773.4871  -8.217  508.2794  670.3889  -8.219      241.40 0.147
  635.2938  780.4602  -6.598  631.0745  669.7722  -6.599       59.98 0.362
  994.2868  803.2889  -9.222  992.2529  670.2706  -9.219      627.03 0.091
  150.0770  751.8735  -8.066  141.7744  671.4359  -8.071      205.30 0.146
  834.7556  794.1819  -6.701  831.8486  671.1028  -6.699       69.74 0.425
  588.0871  779.5735 -10.402  583.5204  671.8247 -10.402     1882.18 0.038
  473.2115  773.1607  -6.927  467.7680  672.5679  -6.929       88.76 0.351
  659.4201  785.2460  -6.782  655.3549  673.0563  -6.782       72.11 0.395
  820.5517  796.5235  -7.064  817.5494  674.3269  -7.063       74.82 0.301
  884.6519  801.9125  -9.458  882.0149  675.7238  -9.456      746.62 0.181
  279.6050  765.1525  -8.563  272.4925  676.6400  -8.567      350.13 0.105
   34.2446  750.7521  -8.629   24.7405  677.5528  -8.635      363.50 0.121
  334.4364  770.2685  -8.518  327.8047  678.3363  -8.521      319.64 0.127
  718.2341  793.5433 -10.142  714.5812  677.7153 -10.141     1473.28 0.042
  948.7562  807.7943  -7.250  946.4645  677.6072  -7.248      111.42 0.186
  303.1434  769.1427  -6.597  296.2296  679.1643  -6.600       67.35 0.498
  321.4046  769.9111  -6.400  314.6555  678.7928  -6.404       60.07 0.456
  529.9628  784.5887 -10.599  524.9223  680.4636 -10.600     2331.23 0.039
  554.7435  785.6360  -6.599  549.8932  679.9668  -6.601       71.56 0.319
  844.4712  804.0228  -6.746  841.5878  680.3344  -6.745       65.93 0.434
  600.2564  789.7586  -8.152  595.7368  681.2548  -8.153      255.58 0.124
  697.9548  795.4949  -7.725  694.1195  680.9057  -7.725      179.69 0.194
  574.5556  789.3793  -9.645  569.8419  682.4769  -9.646      927.60 0.067
  165.0884  764.0173  -6.968  156.8670  682.6589  -6.973       88.96 0.327
  876.1561  808.2863  -7.057  873.4468  682.6233  -7.055       92.28 0.301
  633.7190  794.3637  -8.836  629.4285  683.7759  -8.836      479.56 0.093
  235.2992  770.4444 -11.249  227.7342  684.7063 -11.253     4552.21 0.025
  363.4517  778.4040  -7.241  357.0401  684.6669  -7.244      111.60 0.287
  796.8936  807.5200  -6.775  793.7030  686.7919  -6.774       94.36 0.332
  969.0691  818.4799  -7.397  966.8538  687.0181  -7.394      158.69 0.240
  496.5327  790.0609 -10.743  491.1993  688.0243 -10.745     3072.64 0.030
  691.7730  803.7710  -7.209  687.8605  689.5669  -7.209       96.59 0.281
  866.9371  814.5778  -8.601  864.1509  689.4859  -8.599      370.39 0.071
 1003.8725  823.3662  -6.931 1001.8259  689.7316  -6.928       94.43 0.372
   88.6586  767.9909  -6.809   79.6296  691.4185  -6.814       60.05 0.416
  279.3980  779.8058 -10.952  272.2042  691.3232 -10.955     3388.62 0.034
  290.4752  779.9604 -11.170  283.3849  690.7857 -11.174     4054.25 0.025
  371.7752  785.5242  -9.943  365.4017  691.2738  -9.946     1265.24 0.037
  737.8899  807.5256  -9.530  734.3148  690.4725  -9.529      827.43 0.084
  922.1406  819.6981  -9.567  919.6603  691.1609  -9.565      920.30 0.069
  639.4641  802.8621  -8.164  635.1794  691.9181  -8.165      265.02 0.129
  183.9498  775.0936  -8.258  175.8538  692.5719  -8.263      293.76 0.130
  203.1945  776.6567 -10.725  195.2802  692.9337 -10.730     2925.87 0.030
  939.9243  822.1617  -9.751  937.5365  692.5139  -9.749      889.35 0.050
  549.8267  799.6372  -8.852  544.8740  694.2817  -8.853      481.94 0.091
 1010.3872  827.8073  -7.694 1008.3605  693.7628  -7.691      145.80 0.375
  271.4780  783.6987  -7.986  264.1878  695.7159  -7.990      239.90 0.153
  235.6017  782.8457  -7.295  227.9711  697.1048  -7.299      111.12 0.274
  494.4241  800.8045  -8.871  489.0230  698.9071  -8.873      531.45 0.080
  780.5237  818.3241  -6.379  777.1879  698.6133  -6.378       48.37 0.473
  432.8214  799.3498  -9.693  426.9143  701.2972  -9.696     1130.34 0.063
  819.1823  824.5329  -8.795  816.0695  702.4117  -8.794      463.27 0.093
  972.4599  834.0018  -6.952  970.2134  702.3161  -6.949       94.27 0.260
   73.6902  778.1158  -9.103   64.4428  702.4981  -9.109      507.03 0.060
  674.2261  816.0187  -7.496  670.1384  702.9097  -7.496      130.55 0.201
  168.7589  785.8846  -6.547  160.4495  704.3294  -6.552       47.17 0.431
  716.2747  819.2220 -11.260  712.5073  703.5161 -11.260     3504.85 0.082
   45.3153  778.7748  -7.943   35.7603  704.9351  -7.949      219.28 0.139
  317.6339  796.3406  -7.623  310.7096  705.4873  -7.626      133.09 0.247
  984.9429  837.1948 -10.114  982.7537  704.7279 -10.112     1655.23 0.042
  777.9755  826.4330  -6.875  774.5927  706.8800  -6.875       74.89 0.331
 1001.6489  840.1465  -6.332  999.5389  706.6360  -6.329       57.05 0.389
   23.5848  781.1141  -6.788   13.7872  708.6282  -6.794       66.41 0.432
  421.5694  805.7780  -7.411  415.5345  708.4343  -7.414      117.95 0.220
  101.3083  786.0216 -10.032   92.3053  708.6891 -10.038     1499.61 0.047
  204.7449  792.5919  -7.990  196.7566  708.7947  -7.995      225.76 0.124
  499.5614  811.2236  -7.757  494.1531  709.0133  -7.759      195.32 0.116
  576.7538  817.0736  -6.520  571.9330  710.0475  -6.521       54.71 0.359
  313.0686  801.6401  -9.950  306.0734  711.0789  -9.953     1414.78 0.052
  488.7580  812.7170  -6.890  483.2543  711.1827  -6.892       95.35 0.392
  592.0822  819.4337  -8.370  587.3693  711.4519  -8.371      263.00 0.120
  713.2452  826.4574  -9.432  709.4284  710.9413  -9.432      796.83 0.088
  936.2214  839.9675  -7.412  933.7540  710.5391  -7.410      122.86 0.227
  340.4558  804.5958 -12.091  333.6995  712.3246 -12.095     9401.94 0.027
  787.4562  832.1718  -9.590  784.1134  712.0271  -9.589     1034.68 0.062
  482.4442  814.5536  -6.855  476.8799  713.4152  -6.857       66.17 0.334
  287.5843  803.0099  -8.544  280.3423  714.0445  -8.547      358.14 0.116
  137.0534  794.7332  -6.640  128.3704  715.1774  -6.645       64.83 0.452
  331.6320  809.0939  -7.287  324.7705  717.3803  -7.291      100.86 0.453
  570.0850  823.0948  -8.849  565.1851  716.4886  -8.851      442.86 0.085
  558.5431  823.8764  -9.179  553.5490  717.9917  -9.181      599.93 0.073
  844.1463  842.0522  -6.968  841.1251  718.3702  -6.966       88.05 0.296
  192.3376  802.2883  -8.299  184.1714  719.2827  -8.304      304.84 0.109
  249.8894  805.4153  -7.717  242.2731  718.8119  -7.721      176.63 0.215
  216.4968  804.0954  -7.878  208.5607  719.5800  -7.883      180.27 0.134
  467.0860  819.6808  -8.559  461.3698  719.5064  -8.561      332.76 0.113
  540.6855  826.3334  -6.789  535.5379  721.5662  -6.791       60.25 0.308
  564.2919  827.6599  -8.093  559.3259  721.4186  -8.094      229.40 0.160
  599.3588  829.6015  -7.609  594.6569  721.1707  -7.610      157.74 0.149
  761.4006  839.5651  -7.495  757.8591  721.0456  -7.495      138.73 0.302
  977.5164  853.2897  -8.753  975.2360  721.2746  -8.751      406.10 0.112
  658.5196  833.8539  -6.354  654.2432  721.7298  -6.355       48.47 0.445
  945.3564  852.5434  -7.050  942.8994  722.5374  -7.048       78.84 0.253
   40.9978  796.4956  -8.536   31.2884  722.9617  -8.543      377.19 0.066
  639.5018  834.1447  -8.957  635.0837  723.2085  -8.958      526.54 0.100
  488.0628  826.8880  -8.656  482.4865  725.4094  -8.658      359.07 0.108
  691.6369  840.1057  -8.282  687.5743  725.9152  -8.282      257.09 0.111
  509.3544  829.4317  -7.823  503.9404  726.6248  -7.825      202.39 0.167
  581.1525  835.6112  -7.494  576.2831  728.3216  -7.495      113.87 0.388
  703.5168  843.5017  -8.231  699.5647  728.5964  -8.231      239.27 0.116
  165.5793  811.0099 -10.732  157.0942  729.6950 -10.737     2880.66 0.162
  953.9109  860.2457  -7.113  951.4771  729.7010  -7.111       87.13 0.322
  143.7783  810.3109  -7.240  135.0743  730.3611  -7.245       97.16 0.220
  203.8270  814.6490  -8.485  195.7059  730.9435  -8.490      375.60 0.112
  287.1233  819.8261  -8.710  279.7861  730.9127  -8.714      441.98 0.099
  772.9257  850.9388 -10.622  769.4174  731.7004 -10.621     2289.09 0.046
  610.6667  841.7854  -7.485  605.9980  732.6548  -7.487      150.33 0.237
   21.6354  806.2072  -7.082   11.6613  733.8938  -7.089       90.25 0.319
  188.0805  817.0103  -7.092  179.7886  734.2953  -7.097       86.59 0.240
  660.0413  845.8988  -7.271  655.7254  733.6841  -7.272      104.93 0.286
   71.1380  810.5915 -10.378   61.6690  735.1965 -10.384     1970.98 0.040
  239.7218  820.6888  -8.215  231.9222  734.7448  -8.220      282.15 0.110
  636.5637  846.1632 -10.278  632.0722  735.4161 -10.279     1770.62 0.034
  141.6271  816.6691  -6.272  132.8641  736.8656  -6.278       43.88 0.500
  390.1145  832.4761  -7.150  383.6682  737.1299  -7.153       92.75 0.339
  462.3350  837.0859  -8.449  456.4957  737.2256  -8.451      296.45 0.095
  923.6636  865.1401  -6.500  921.0403  736.4836  -6.498       58.76 0.391
  669.4050  852.1328  -7.029  665.1317  739.3354  -7.029       98.08 0.308
  613.7051  848.7819  -6.743  609.0291  739.4655  -6.744       74.92 0.458
   79.9010  817.1560 -10.903   70.4866  741.2248 -10.909     2959.85 0.032
  453.8452  840.4592  -8.773  447.9179  741.1334  -8.775      556.04 0.105
   94.2249  819.2362  -9.263   84.9507  742.4106  -9.269      667.71 0.054
  506.9717  847.8753  -6.955  501.4522  745.2338  -6.957       97.66 0.468
  782.0544  865.3718  -6.550  778.5517  745.5641  -6.550       51.82 0.375
  413.6963  844.0721  -8.307  407.4039  747.2625  -8.310      276.72 0.066
  818.2133  869.0797  -8.184  814.9316  747.0128  -8.183      260.15 0.127
  147.9700  828.3928 -10.592  139.2046  748.2136 -10.597     2476.23 0.035
  837.5352  870.8831  -9.560  834.3693  747.6089  -9.559      863.72 0.069
  109.5152  827.5761  -9.903  100.3534  749.8079  -9.909     1262.51 0.042
  217.0781  834.1796  -6.963  208.9800  749.6767  -6.967       82.98 0.334
  530.8395  853.5709  -7.378  525.4878  749.4413  -7.380      122.64 0.294
  885.5973  876.1880  -8.921  882.7092  749.9090  -8.919      556.23 0.071
  562.0029  856.9616  -6.159  556.8871  750.8845  -6.161       47.74 0.487
   38.6411  825.3053 -10.075   28.7308  751.9803 -10.081     1637.59 0.044
  521.8124  855.5837  -7.510  516.3785  752.0204  -7.512      138.26 0.207
  450.6293  852.3613 -10.483  444.6173  753.2491 -10.485     2162.59 0.041
  362.5115  847.7393  -6.885  355.7363  754.1417  -6.889       97.89 0.343
  282.5371  843.9139  -8.223  275.0273  755.3238  -8.228      256.20 0.116
  338.8492  846.7520  -7.520  331.8590  754.6362  -7.524      150.19 0.192
  247.4496  842.0959  -7.830  239.6085  755.7026  -7.834      192.41 0.196
  436.6194  855.0824  -8.829  430.4738  756.8502  -8.832      463.57 0.098
  602.2553  865.2455  -8.039  597.4199  756.6548  -8.040      193.95 0.273
  704.5693  871.6872  -7.999  700.5114  756.7238  -8.000      215.65 0.159
  227.5001  843.1025  -5.693  219.4562  757.9619  -5.698       28.35 0.425
  875.1966  883.1762  -8.707  872.2202  757.5468  -8.705      400.15 0.097
  535.5131  863.2318  -6.511  530.1553  758.8179  -6.513       70.95 0.421
  653.2729  871.0899  -7.785  648.8013  759.3095  -7.787      185.57 0.169
  690.0704  873.3790  -7.135  685.8604  759.2970  -7.135       73.72 0.368
  894.6909  886.1199 -10.914  891.8235  759.2699 -10.912     3286.91 0.034
   64.2870  835.0791 -10.413   54.5971  760.1654 -10.420     1906.11 0.217
  717.1441  876.5083  -9.598  713.1555  760.7599  -9.598     1040.26 0.054
  727.1608  877.1515 -12.458  723.2397  760.7768 -12.458    14443.80 0.021
  779.8579  881.8385  -7.600  776.2778  762.1694  -7.600      136.73 0.177
  408.3525  859.5217  -6.781  401.9358  763.0659  -6.785       75.92 0.375
  567.5296  869.1002  -7.889  562.4039  762.6862  -7.891      210.41 0.155
  942.8656  892.9821  -7.477  940.2611  763.1155  -7.476      166.20 0.228
  972.7812  895.3154  -6.228  970.3400  763.5759  -6.226       41.73 0.472
  105.9988  842.5974  -9.595   96.7113  765.0808  -9.601      997.51 0.053
  418.9467  862.0431  -6.871  412.6124  764.9262  -6.874       69.24 0.394
  250.8483  852.1429  -8.696  242.9859  765.5537  -8.701      425.29 0.114
  811.7806  887.4296 -10.591  808.3894  765.7648 -10.590     2443.70 0.033
   79.7199  842.6999  -7.749   70.1510  766.8336  -7.755      162.32 0.199
  465.6235  866.4108  -8.251  459.6719  766.3754  -8.254      233.47 0.158
  931.7911  895.9605  -8.074  929.1120  766.7863  -8.073      248.47 0.169
  140.7677  847.8214 -10.174  131.8150  768.1327 -10.179     1806.75 0.044
  387.8523  863.1482 -15.003  381.2320  767.9825 -15.006   993850.88 0.000
  848.2155  891.5713  -7.605  845.0417  767.6283  -7.604      149.20 0.240
  694.3704  884.3638  -6.877  690.1469  770.0173  -6.878       88.20 0.407
  192.1711  854.1516  -9.648  183.7097  771.2482  -9.653     1037.98 0.056
  890.8999  897.3925  -8.123  887.9703  770.7783  -8.122      281.67 0.137
  265.3782  859.0724  -6.401  257.6208  771.5836  -6.406       45.35 0.446
  733.2551  888.7013  -8.017  729.3307  771.9487  -8.017      237.27 0.184
  992.6227  904.7128 -10.068  990.2621  771.7288 -10.066     1395.10 0.106
  682.9524  886.5477  -9.651  678.6366  772.9171  -9.651     1040.34 0.042
  480.7782  874.6315 -10.074  474.9159  773.6559 -10.076     1593.24 0.046
   69.2757  850.2712 -11.304   59.5486  775.0777 -11.310     4593.87 0.021
  207.6160  858.7587  -7.478  199.2850  774.8947  -7.483      131.20 0.220
  396.7715  870.5729 -12.230  390.1952  774.8580 -12.233    11966.13 0.025
   93.4490  852.2057  -7.928   83.9708  775.4979  -7.934      198.91 0.182
  161.2654  857.2783  -9.190  152.4704  776.3218  -9.196      496.10 0.257
  871.6410  901.2770  -8.437  868.5784  775.8687  -8.436      329.77 0.107
  623.8237  886.8484  -7.143  619.0621  776.9216  -7.144       85.32 0.362
  967.6206  908.0515  -7.605  965.1091  776.6316  -7.603      137.99 0.182
  421.8906  876.1988 -10.700  415.5129  778.9156 -10.704     2554.35 0.024
  811.4121  902.0269  -6.167  807.9642  780.3868  -6.167       49.82 0.444
 1001.9035  913.2654  -8.355  999.5670  779.6978  -8.353      271.80 0.107
  177.7740  864.4525  -8.098  169.1076  782.4738  -8.104      256.44 0.195
  540.2990  887.0834 -10.120  534.8723  782.3914 -10.122     1558.28 0.049
  678.2657  894.9949 -10.691  673.8807  781.6623 -10.692     2752.35 0.028
  698.0624  897.0766 -12.673  693.8141  782.5050 -12.674    15401.17 0.026
  455.6975  882.0267  -7.558  449.5862  782.6317  -7.561      144.63 0.189
  134.0523  862.9680  -7.223  124.9412  783.7328  -7.229      110.24 0.313
  378.1306  878.5622  -8.520  371.3438  784.0284  -8.523      385.17 0.128
   38.8585  858.4150 -12.113   28.7492  785.1516 -12.119    10753.89 0.032
   52.7458  858.6828  -9.150   42.7878  784.5473  -9.157      652.13 0.078
   71.3997  860.7401  -8.523   61.6328  785.4369  -8.530      289.46 0.168
  161.6462  866.2662  -7.613  152.8035  785.3045  -7.619      162.03 0.151
  593.0960  893.0723  -6.808  588.0679  785.0759  -6.810       78.07 0.326
  890.2666  911.4242  -7.987  887.2843  784.8489  -7.986      212.67 0.169
  260.9817  873.6470  -6.673  253.1024  786.4602  -6.678       73.72 0.386
  359.1695  879.6980  -8.478  352.2011  786.3561  -8.482      374.77 0.144
  251.3625  872.9281  -6.970  243.3919  786.3441  -6.975       77.62 0.313
  647.0850  897.8850  -6.618  642.4544  786.5082  -6.619       52.63 0.451
  797.3534  908.6741  -9.965  793.7880  787.9153  -9.965     1467.68 0.041
  852.0494  912.8564 -10.442  848.8231  788.6744 -10.441     2152.23 0.039
  326.1821  882.3244  -7.477  318.8891  791.0581  -7.481      138.36 0.171
  874.1001  917.9411  -7.121  870.9941  792.3791  -7.120       83.15 0.403
  162.5524  875.3226  -7.513  153.6669  794.3232  -7.518      128.18 0.127
  200.0020  877.7034  -7.796  191.4867  794.3555  -7.802      161.61 0.178
  791.2254  914.6373 -10.230  787.5966  794.2637 -10.230     1683.48 0.038
  545.5973  899.8600  -7.836  540.1564  794.8487  -7.838      222.22 0.368
   78.8211  872.0617  -9.486   69.0671  796.3184  -9.493      845.14 0.053
  773.4940  915.0851  -7.148  769.7438  795.8222  -7.148      107.06 0.244
  299.0173  886.4648  -7.287  291.4417  796.9119  -7.292      113.76 0.236
  877.8044  922.6226  -8.006  874.7052  796.8287  -8.005      228.29 0.117
   18.8260  869.7288  -8.080    8.4312  797.7411  -8.087      242.24 0.167
  848.6032  922.2308  -7.594  845.3212  798.2658  -7.593      144.10 0.184
  959.2727  928.7753  -8.286  956.6458  797.8750  -8.284      243.01 0.180
  990.2517  930.8984  -7.143  987.7950  798.0564  -7.141      107.96 0.242
  127.1349  877.8915  -8.241  117.8638  799.1241  -8.247      261.60 0.145
  158.4939  882.4229  -7.453  149.5254  801.6941  -7.459      132.40 0.278
  406.7644  898.2248  -6.988  400.1415  801.9225  -6.991       86.65 0.271
  700.3974  917.0039  -8.353  696.0854  802.2972  -8.354      338.12 0.118
  890.1270  928.1888  -8.902  887.0855  801.6229  -8.901      495.74 0.088
  220.7810  887.7337  -7.122  212.4216  803.1005  -7.127       84.69 0.376
  309.3711  892.7592  -9.936  301.8625  802.5669  -9.941     1348.94 0.050
  633.9142  913.0250  -6.746  629.1188  802.4855  -6.747       70.66 0.312
  959.3004  933.9449  -7.989  956.6568  803.0425  -7.988      208.56 0.166
  663.5530  916.2367  -7.570  658.9703  803.8404  -7.572      143.76 0.234
  247.6911  891.6243  -8.036  239.5820  805.3070  -8.041      189.11 0.167
  257.0888  891.6440  -8.977  249.0735  804.7359  -8.982      589.29 0.067
  937.5702  934.5811  -9.319  934.7963  805.0410  -9.317      789.42 0.089
  231.5310  891.1741  -6.671  223.2616  805.8720  -6.676       68.74 0.496
  421.4199  904.0721  -8.865  414.9008  806.8579  -8.869      563.63 0.084
  504.6876  909.0571 -10.004  498.8656  806.6228 -10.007     1415.90 0.060
  726.2800  923.2821  -7.716  722.1691  806.9811  -7.716      159.75 0.259
   46.5513  881.9491 -10.232   36.3841  808.2593 -10.239     1559.45 0.059
  200.2402  891.0100 -10.248  191.6520  807.6754 -10.253     1690.49 0.038
  988.3644  941.0882  -8.316  985.8649  808.3632  -8.314      308.14 0.132
 1004.2341  941.3766  -7.406 1001.8224  807.6563  -7.404      128.52 0.307
  449.1790  907.8053  -7.582  442.8869  808.8537  -7.585      174.23 0.194
  690.3555  922.9462  -9.398  685.9454  808.8733  -9.399      899.33 0.059
  720.9227  926.3497  -8.341  716.7614  810.3862  -8.342      281.35 0.095
  784.1722  929.5359  -8.623  780.4393  809.6094  -8.624      357.25 0.132
  799.3676  930.3444  -8.614  795.7341  809.4660  -8.615      348.94 0.108
  169.4361  892.3455  -6.779  160.5241  810.9508  -6.785       77.63 0.434
  436.7663  909.0350  -6.611  430.3593  810.8645  -6.614       87.27 0.403
  563.2952  917.4575  -7.379  557.9202  811.3541  -7.381      159.96 0.320
  871.8499  938.7198  -7.302  868.6562  813.3016  -7.301       90.17 0.380
  304.5385  903.4369  -7.171  296.9274  813.5679  -7.176       97.58 0.218
  350.7791  907.2776  -9.164  343.5915  814.5082  -9.168      541.35 0.072
  491.2212  916.4882  -7.513  485.2506  814.9088  -7.516      205.46 0.264
  649.6001  926.3641 -10.502  644.8690  814.8514 -10.504     2530.19 0.052
  713.7967  930.8916  -8.438  709.5659  815.3776  -8.439      272.36 0.105
  446.0029  914.6349  -9.359  439.6500  815.8926  -9.362      792.02 0.050
  987.5921  950.5416  -6.522  985.0581  817.8644  -6.520       65.37 0.430
  641.4323  929.6097  -9.721  636.6247  818.6126  -9.722     1032.34 0.043
  403.6437  916.3001  -8.366  396.9026  820.2223  -8.370      334.88 0.095
  652.4905  931.8593  -9.796  647.7584  820.1699  -9.797     1180.77 0.063
  496.4125  923.0659  -7.853  490.4553  821.1693  -7.856      247.27 0.179
  333.0802  913.2324  -9.315  325.6937  821.5865  -9.319      682.93 0.077
  912.3077  949.4797  -7.452  909.3303  821.5252  -7.451      106.32 0.204
  204.2858  907.0187  -6.229  195.6490  823.4647  -6.235       45.89 0.498
  660.5160  936.3533  -9.731  655.8264  824.1639  -9.732     1197.30 0.035
  766.0022  942.5970  -6.644  762.0946  823.8159  -6.644       64.16 0.420
  953.8205  954.6818  -9.385  951.0768  824.1234  -9.383      852.96 0.078
  104.0266  902.3137 -10.285   94.3652  825.0578 -10.292     1789.07 0.046
  928.7815  955.1808  -8.194  925.8857  826.1935  -8.193      263.97 0.120
  111.3586  904.3067  -7.934  101.7644  826.5942  -7.941      198.32 0.166
  247.3920  913.2627  -6.832  239.1616  827.0088  -6.837       88.42 0.254
  643.7252  938.4027  -6.810  638.8982  827.2697  -6.812       79.43 0.391
  868.5639  951.6805  -7.726  865.3033  826.4715  -7.726      153.63 0.166
  887.9497  953.5679  -8.274  884.8060  827.1428  -8.274      294.25 0.108
  979.5498  959.3313  -9.775  976.9418  827.1589  -9.773     1170.30 0.073
  968.9106  959.9585  -8.374  966.2386  828.4537  -8.372      245.86 0.252
   88.8975  905.3543  -8.650   79.0544  829.0584  -8.657      359.87 0.366
  665.0612  941.3304  -9.439  660.3855  828.8599  -9.441      816.38 0.078
   78.6354  905.7816  -8.415   68.6777  830.1328  -8.422      309.15 0.134
  415.9106  927.6209  -6.382  409.2255  830.7903  -6.386       67.14 0.448
  462.3742  930.4593  -7.125  456.0885  830.7122  -7.129      130.26 0.360
   95.3386  908.7123  -7.947   85.5454  832.0193  -7.953      200.51 0.122
  205.6615  915.4502  -8.087  196.9915  831.8286  -8.093      248.26 0.141
  239.1500  917.8054  -8.757  230.8111  832.0801  -8.762      481.56 0.092
  309.4038  922.0047  -8.702  301.7431  831.8649  -8.707      463.37 0.100
  600.3698  940.5600  -7.714  595.1926  832.1532  -7.717      200.89 0.192
  428.4196  930.6891  -9.388  421.8326  833.0769  -9.392      836.12 0.063
  756.2613  951.5450 -12.073  752.2510  833.3802 -12.074     9091.67 0.019
  150.1750  913.6714  -7.810  140.9390  833.5383  -7.817      170.78 0.156
  798.5037  955.9268  -9.754  794.7681  835.1139  -9.754     1114.66 0.066
  372.1610  929.9485 -10.525  365.0597  835.8744 -10.529     2542.91 0.032
  526.6432  940.8626 -17.900  520.8590  837.0905 -17.902 14243853.00 0.000
  784.0858  956.9363 -10.663  780.2480  837.0286 -10.664     2741.67 0.033
 1011.8596  970.9855  -6.515 1009.3978  836.7841  -6.513       63.33 0.436
  300.0909  927.6183  -8.681  292.3095  838.0761  -8.686      445.27 0.091
  810.2138  959.9452  -6.597  806.5421  838.3996  -6.597       62.53 0.410
  144.7763  919.9815  -9.806  135.4467  840.2038  -9.812     1092.14 0.053
  499.9328  942.2931  -9.141  493.9160  840.2023  -9.144      565.64 0.360
  177.8444  922.8075  -8.492  168.8453  840.9545  -8.498      368.00 0.105
  222.6209  927.1960  -7.556  214.0606  842.5330  -7.561      137.37 0.211
  280.6220  930.5523  -7.050  272.6321  842.2423  -7.055       84.01 0.335
   56.3461  918.6826  -6.712   46.0652  844.4715  -6.719       64.46 0.326
  409.3567  941.1482 -10.861  402.5447  844.7532 -10.865     2963.80 0.032
   98.9516  922.8658  -8.129   89.1137  845.9816  -8.136      237.93 0.156
  740.2962  964.6007  -8.400  736.1216  847.4470  -8.401      306.69 0.147
  196.0455  931.1351  -7.020  187.1874  848.1560  -7.026       93.97 0.272
  823.5395  969.8683  -6.594  819.9202  847.4915  -6.594       58.39 0.392
  160.5247  929.8542  -8.687  151.3041  849.1092  -8.694      401.80 0.099
  369.3187  943.1462  -7.024  362.1239  849.2755  -7.028       82.94 0.333
  834.1267  971.3930  -6.885  830.5721  848.3523  -6.885       66.44 0.324
  182.0888  931.7708  -7.149  173.0827  849.6723  -7.155      110.71 0.244
  504.2956  952.8647 -10.111  498.2668  850.5152 -10.114     1645.76 0.144
  382.5401  946.9945  -6.642  375.4502  852.2985  -6.646       66.89 0.381
  885.0216  979.5047  -6.910  881.7686  853.2720  -6.909       73.04 0.424
   86.9001  930.0317  -8.114   76.8882  853.9259  -8.121      268.83 0.111
  847.6810  977.7682  -8.593  844.1924  853.8798  -8.593      405.44 0.099
  267.5706  943.5147 -10.610  259.3802  856.0555 -10.615     2386.53 0.064
   73.0886  932.2247  -7.187   62.9116  856.9953  -7.194      107.25 0.211
  285.9389  945.4940  -7.082  277.9227  856.8811  -7.088       96.79 0.264
  659.2027  971.0426  -7.137  654.3583  858.9698  -7.139      106.79 0.314
  779.8048  979.0490 -15.090  775.8530  859.4244 -15.091  1072932.75 0.000
  999.2969  992.6526  -8.264  996.6964  859.2429  -8.262      250.93 0.156
  818.1049  981.9451  -7.246  814.4045  859.9165  -7.247      108.12 0.201
  868.9623  985.2941  -7.144  865.5849  860.0731  -7.143       87.77 0.300
  280.9626  948.8668  -8.260  272.8785  860.5751  -8.266      284.95 0.164
  382.8782  957.3611  -9.205  375.7394  862.6636  -9.210      682.91 0.061
  900.3352  989.8151  -6.450  897.1443  862.6245  -6.450       49.56 0.241
  319.0111  954.7367  -6.936  311.2740  864.0587  -6.942       71.86 0.386
  699.8401  979.4533  -7.633  695.2708  864.8324  -7.635      169.28 0.170
  818.5463  987.8415  -7.158  814.8270  865.7889  -7.158      128.98 0.278
  121.0705  945.5206  -8.765  111.3386  867.3025  -8.772      390.26 0.062
  884.1308  992.9854  -9.671  880.8248  866.8148  -9.671     1164.17 0.069
  237.0652  953.2940  -7.660  228.5096  867.7815  -7.666      142.95 0.194
  580.2700  974.8920  -9.527  574.7795  867.7921  -9.530      881.15 0.181
  177.5212  950.8301  -7.104  168.3586  869.0673  -7.111       80.18 0.270
  227.2686  953.7535  -7.183  218.6089  868.8603  -7.188       93.26 0.371
   96.6053  946.7521  -9.833   86.6002  870.0800  -9.840     1110.96 0.103
  265.9295  956.9451  -7.527  257.6500  869.6199  -7.533      132.99 0.350
  369.2836  964.2961  -8.624  361.9815  870.4692  -8.628      386.84 0.076
  490.7377  972.8943  -8.504  484.4984  871.4300  -8.507      301.41 0.489
  683.2152  984.4768  -9.226  678.4996  870.9075  -9.228      631.51 0.090
  877.3150  996.5254  -6.856  873.9522  870.7851  -6.856       68.30 0.372
  842.2947  995.9007 -11.429  838.7048  872.3610 -11.429     5110.15 0.021
   27.2519  945.0129  -8.559   16.4926  872.7032  -8.567      334.55 0.109
  819.6262  994.7704  -7.180  815.8885  872.6546  -7.181      106.19 0.272
   18.5850  945.6461  -8.531    7.7221  873.8852  -8.538      317.67 0.142
   95.5505  951.8084 -10.210   85.5039  875.2168 -10.217     1444.61 0.098
  927.0959 1004.0093  -9.860  924.0254  875.1427  -9.859     1340.36 0.042
  975.1679 1007.8947  -8.437  972.3782  876.0073  -8.436      322.42 0.101
  420.7005  974.3842  -7.056  413.8286  877.3360  -7.060       97.40 0.335
  906.7428 1004.8138 -10.337  903.5410  877.2274 -10.337     1748.22 0.027
  103.5343  954.8027  -7.665   93.5572  877.7159  -7.672      151.71 0.261
  661.8868  990.6065  -8.131  656.9816  878.3871  -8.133      240.61 0.110
  737.6138  995.2319 -10.564  733.2989  878.2727 -10.565     2329.70 0.044
  873.0027 1003.0622  -6.658  869.5886  877.5968  -6.658       49.64 0.420
   79.8717  954.8651  -7.615   69.6341  879.2711  -7.623      142.01 0.135
  301.5888  969.9102  -7.987  293.6002  880.3644  -7.993      181.08 0.141
  754.2254  997.5460  -8.539  750.0213  879.5442  -8.540      379.02 0.092
  692.7192  995.0822 -10.739  688.0326  880.9261 -10.740     3188.11 0.027
  923.3622 1009.9754  -7.842  920.2482  881.3464  -7.842      164.92 0.159
  277.4020  971.0174  -7.553  269.1636  883.0011  -7.558      133.00 0.230
  377.3615  980.3919 -10.385  370.0547  886.0888 -10.390     2231.58 0.035
  418.9250  982.6479  -8.070  411.9960  885.7278  -8.075      257.00 0.095
  236.5432  972.2058  -8.632  227.8780  886.7728  -8.638      411.86 0.079
  491.2765  987.9049  -8.051  484.9714  886.4325  -8.055      244.51 0.126
  514.6204  989.9581  -8.714  508.5086  887.0176  -8.717      422.64 0.109
   98.5857  964.6315  -9.208   88.4962  887.8847  -9.215      676.61 0.074
  789.3299 1007.7137  -7.301  785.3353  887.5130  -7.302      153.22 0.363
  657.2241 1001.1607  -6.622  652.2384  889.2481  -6.624       68.02 0.470
  598.5940  998.0190  -8.763  593.1524  889.7974  -8.766      495.86 0.149
   35.5654  963.7686  -8.256   24.7774  890.9969  -8.264      301.75 0.111
  827.9733 1013.9364 -12.424  824.2214  891.3100 -12.424    12015.10 0.110
  879.0716 1017.1352  -6.759  875.6476  891.2967  -6.759       70.38 0.380
  578.0250  999.0486  -8.343  572.4094  892.1252  -8.346      292.15 0.239
  611.8290 1001.0557  -7.004  606.4819  892.0042  -7.006       87.48 0.333
  971.7455 1023.7143  -9.280  968.8843  892.0485  -9.279      821.55 0.091
  802.8539 1013.7018 -10.209  798.9308  892.6554 -10.210     1783.26 0.076
  596.7852 1002.7102  -8.725  591.3083  894.6096  -8.728      391.83 0.192
  692.2585 1008.8314 -10.227  687.5122  894.7204 -10.229     1561.10 0.034
  330.7896  987.1661  -7.614  322.9998  895.8165  -7.620      177.16 0.161
  345.9791  987.9522  -6.919  338.3331  895.6456  -6.924       85.99 0.411
  297.8724  986.1486  -7.202  289.7611  896.8754  -7.208       97.51 0.292
  747.6352 1014.0025  -7.060  743.3192  896.4313  -7.061       83.44 0.282
  762.9731 1015.2291  -7.332  758.7630  896.6937  -7.333      117.09 0.309
  796.1096 1017.7619 -13.156  792.1243  897.1435 -13.156    26110.28 0.085
  307.0375  988.0427  -7.176  299.0085  898.1949  -7.182      107.98 0.256
  978.1942 1030.0673  -8.743  975.3514  897.9988  -8.742      440.89 0.094
  999.9057 1031.3168  -6.061  997.1869  897.8798  -6.060       39.35 0.383
   96.9417  975.1585  -9.676   86.7717  898.5460  -9.683      954.87 0.072
  567.9289 1004.7352  -7.537  562.2037  898.4575  -7.540      161.70 0.225
  780.8771 1018.6379 -10.513  776.7814  898.9790 -10.514     2447.62 0.033
  446.5432  998.3862  -9.660  439.7895  899.7550  -9.664     1103.56 0.037
  260.9776  987.4845  -9.924  252.4823  900.5461  -9.930     1125.67 0.053
  941.0339 1031.0222 -10.878  937.9600  901.2927 -10.878     3216.87 0.032
  984.8197 1033.5601  -7.421  982.0053  901.0759  -7.420      124.42 0.254
   54.6996  975.5110  -9.199   44.0567  901.5667  -9.207      623.49 0.094
  123.2186  980.6206  -6.510  113.3039  902.3650  -6.517       46.53 0.368
  385.2627  996.8735  -8.479  377.9479  902.1070  -8.484      382.21 0.114
  272.9478  992.3903  -6.995  264.5494  904.7076  -7.001       91.36 0.396
  321.6319  995.9062  -9.355  313.7071  905.1552  -9.360      803.12 0.062
  929.7578 1034.0676  -8.446  926.6028  905.0497  -8.446      344.40 0.112
  731.3000 1022.5797  -6.395  726.8304  906.0461  -6.397       40.80 0.478
  791.7438 1025.8891 -11.214  787.6972  905.5531 -11.215     3990.17 0.039
  821.3031 1028.4971  -8.696  817.4520  906.3026  -8.696      363.34 0.120
  134.2704  985.8799  -6.644  124.4449  906.9418  -6.651       55.75 0.473
  426.0962 1004.1655  -6.968  419.1274  906.8368  -6.973       94.71 0.325
  446.2178 1005.1332  -8.608  439.4284  906.5361  -8.612      322.88 0.296
  527.9682 1010.3182 -10.334  521.8779  906.5710 -10.337     1949.82 0.035
  333.6170 1000.2667 -10.300  325.7873  908.7690 -10.305     1985.74 0.047
  465.7512 1008.4790  -7.670  459.1223  908.6554  -7.674      172.08 0.302
  438.6727 1008.5000  -9.758  431.7982  910.3862  -9.762     1098.04 0.052
  235.2692  996.6775  -7.074  226.4707  911.3847  -7.080       83.55 0.281
  679.8298 1024.1880  -6.488  674.9249  910.8803  -6.490       65.04 0.434
  760.7930 1029.3340  -8.526  756.5125  910.9505  -8.528      369.78 0.108
  593.3790 1020.1731 -10.292  587.8276  912.3184 -10.295     1784.58 0.072
  615.0033 1021.0778  -7.252  609.6210  911.8599  -7.255      108.48 0.220
  191.2883  995.2230  -6.406  182.0587  912.6992  -6.412       51.47 0.446
  636.4277 1023.1081  -6.129  631.2137  912.5428  -6.132       40.02 0.436
  693.9695 1027.0571  -9.329  689.1900  912.8689  -9.331      824.57 0.074
  120.7869  992.5498  -8.548  110.8199  914.4730  -8.555      315.84 0.093
   62.1644  989.6877 -11.065   51.5659  915.3076 -11.073     3437.41 0.027
  720.4583 1030.5865  -6.362  715.8853  914.7362  -6.364       59.79 0.468
  745.3879 1033.8596 -10.960  740.9860  916.4407 -10.962     3175.40 0.026
  918.9314 1044.1754  -8.213  915.6764  915.8232  -8.213      258.65 0.147
 1002.5847 1049.4379  -9.872  999.8259  915.8156  -9.871     1336.40 0.044
  100.9406  994.0088  -6.387   90.7477  917.1906  -6.395       48.28 0.466
  403.1472 1012.4328  -8.652  395.9634  916.5579  -8.656      429.86 0.113
  219.5982 1002.8687  -9.385  210.6253  918.5764  -9.392      675.91 0.078
  281.3432 1006.7879  -6.843  272.9907  918.6035  -6.849       68.56 0.294
  573.8738 1025.6462 -13.444  568.1356  919.0310 -13.447    37493.19 0.022
  361.9039 1012.8330  -9.772  354.3225  919.5683  -9.777     1053.75 0.049
  451.4886 1018.4986  -9.915  444.7211  919.5852  -9.920     1221.89 0.076
  683.7010 1033.2710  -7.224  678.8163  919.7388  -7.227       92.56 0.247
  870.0038 1046.4074  -7.609  866.4216  921.1419  -7.610      135.00 0.177
  162.7655 1002.5355  -6.520  153.1935  921.8343  -6.527       58.22 0.439
  632.4609 1031.8140  -7.286  627.1773  921.5121  -7.289      107.05 0.274
  769.5602 1040.4937 -10.351  765.3073  921.5578 -10.353     1758.10 0.047
  256.4703 1010.9956  -6.137  247.8393  924.3940  -6.143       34.56 0.475
  542.8588 1029.5469  -6.906  536.8395  924.8961  -6.910       71.24 0.423
  586.2466 1032.4062  -6.700  580.5816  925.0216  -6.704       82.71 0.393
  623.2064 1035.9925  -7.542  617.8298  926.2812  -7.545      130.15 0.228
  913.1618 1054.1422  -7.071  909.8356  926.1617  -7.071       91.89 0.310
   48.1639 1000.2631  -7.363   37.3428  926.8016  -7.371      111.69 0.304
  452.1730 1027.3458  -6.221  445.3690  928.4079  -6.225       46.02 0.461
  643.2042 1040.6337  -7.078  637.9688  929.6676  -7.081       79.88 0.289
  732.2878 1046.1207  -6.852  727.7395  929.5442  -6.854       66.17 0.336
  159.4742 1011.8766 -10.149  149.8141  931.4103 -10.156     1495.97 0.050
  392.7235 1025.6629  -7.449  385.3745  930.4776  -7.454      118.10 0.199
  710.7217 1046.1142  -8.195  706.0115  930.8991  -8.197      296.95 0.137
   62.8388 1006.3441  -7.623   52.1470  931.9736  -7.630      185.75 0.215
  512.5543 1034.9613  -8.385  506.2491  932.2317  -8.389      314.77 0.077
  113.0975 1011.2470  -9.629  102.9371  933.7121  -9.637     1035.74 0.054
  319.8942 1024.8290  -8.978  311.8361  934.2527  -8.984      559.73 0.093
  356.9801 1026.7153  -6.820  349.2795  933.7953  -6.825       73.32 0.400
  787.9186 1053.8397 -10.600  783.7451  933.7615 -10.601     2666.65 0.036
  172.9644 1015.7737  -7.473  163.4267  934.4655  -7.480      118.44 0.164
  266.9556 1022.5603  -6.621  258.3710  935.3262  -6.627       56.22 0.322
  592.4197 1042.9939 -10.435  586.7590  935.2378 -10.438     1887.96 0.153
  448.5191 1035.1501  -8.898  441.6444  936.4596  -8.903      432.60 0.112
  715.3707 1052.7424  -7.272  710.6683  937.2432  -7.274      107.98 0.222
  370.3991 1031.8687  -7.180  362.8033  938.1115  -7.185       97.75 0.238
  528.0028 1041.1088  -7.750  521.8027  937.4169  -7.754      164.21 0.171
  153.4719 1018.8669  -8.219  143.7076  938.8007  -8.226      266.43 0.252
  194.1810 1023.4142  -9.242  184.8257  940.7859  -9.249      724.25 0.065
  226.6309 1026.9681  -7.207  217.6009  942.2968  -7.214       78.55 0.285
  823.6589 1064.6208  -9.424  819.6959  942.2992  -9.425      752.45 0.076
  158.7281 1023.0694 -10.565  148.9966  942.6831 -10.572     2447.48 0.030
  244.1963 1029.1177 -10.393  235.3395  943.3410 -10.399     1872.14 0.032
  403.4494 1038.7815  -6.710  396.1375  942.9479  -6.715       64.56 0.347
  517.0876 1046.1322  -6.878  510.7698  943.1386  -6.882       75.98 0.272
  706.4421 1058.6676  -9.792  701.6472  943.7410  -9.794     1144.71 0.060
  190.6058 1027.2316  -7.889  181.1916  944.8405  -7.896      205.93 0.316
   33.1849 1018.2798  -7.703   22.0416  945.8007  -7.711      172.62 0.166
  880.8219 1072.1569  -8.546  877.2200  946.2345  -8.546      351.63 0.102
  907.3924 1073.4827  -7.024  903.9617  945.8840  -7.025       94.27 0.275
  965.2163 1077.5745  -9.710  962.1401  946.3290  -9.710     1060.79 0.046
  108.0796 1024.6778  -8.437   97.7850  947.5021  -8.445      293.48 0.131
  302.4473 1037.1024  -6.596  294.1485  947.6619  -6.602       80.49 0.412
  493.8550 1048.9589  -7.967  487.3204  947.4372  -7.971      187.74 0.109
  658.0822 1060.2359 -10.693  652.8817  948.3619 -10.696     2322.20 0.132
  742.7300 1066.2842  -6.914  738.1779  949.0762  -6.916       74.50 0.220
  770.8364 1067.6501  -9.792  766.4858  948.6684  -9.794     1039.93 0.057
   21.8431 1021.8095 -10.785   10.5465  950.0606 -10.793     2776.32 0.043
  874.4736 1075.1322  -8.374  870.8184  949.6139  -8.375      296.90 0.137
   44.6103 1024.0237 -10.244   33.6031  950.8648 -10.252     1660.86 0.057
  150.6172 1030.4354  -8.864  140.7560  950.5847  -8.871      430.98 0.167
  310.2600 1041.9398  -8.914  302.0148  952.0178  -8.920      561.92 0.090
  622.3089 1061.8893  -9.705  616.8119  952.2782  -9.708     1042.00 0.073
  240.4636 1038.2718  -8.105  231.5181  952.7568  -8.112      236.51 0.142
  276.4745 1040.5286 -10.497  267.8918  952.7408 -10.503     2335.53 0.043
  435.9006 1050.7699  -6.516  428.8348  952.9114  -6.521       50.62 0.409
 1001.1104 1086.0926  -6.554  998.2265  952.5865  -6.553       50.69 0.457
  640.8924 1065.0498  -6.875  635.5331  954.2699  -6.878       76.45 0.324
  156.2405 1036.3771  -9.400  146.4065  956.1885  -9.408      748.03 0.060
  449.1829 1054.8193  -8.361  442.2191  956.1312  -8.365      313.78 0.185
  492.1679 1057.5671  -6.883  485.5778  956.1704  -6.888       81.10 0.385
  782.5970 1075.9805  -7.570  778.2993  956.2672  -7.571      135.19 0.166
  469.0904 1057.2957  -9.232  462.2952  957.3558  -9.237      628.18 0.058
  875.2363 1082.2887  -7.400  871.5607  956.7303  -7.401      135.56 0.248
  350.7885 1050.2076  -6.129  342.9062  957.7388  -6.135       44.53 0.444
  454.6634 1057.1280  -8.238  447.7384  958.0991  -8.243      276.62 0.108
  309.3043 1048.4406  -9.599  301.0150  958.5965  -9.605      995.21 0.056
  542.0116 1063.6778 -10.284  535.8289  959.1458 -10.288     1984.03 0.031
  686.5061 1073.4686  -7.070  681.4744  959.8203  -7.073       82.76 0.194
  576.3238 1067.6399  -7.392  570.4177  960.9461  -7.395      142.22 0.204
  716.8889 1077.2461  -6.831  712.0970  961.6877  -6.834       94.15 0.343
  882.7901 1087.6579 -10.115  879.1464  961.6283 -10.115     1609.84 0.048
  461.2522 1063.4922  -6.767  454.3565  964.0617  -6.771       75.06 0.396
  200.4654 1047.4377  -8.489  191.0441  964.4818  -8.496      297.11 0.151
  244.2744 1050.2541 -10.436  235.3040  964.5321 -10.442     1917.49 0.052
  451.1685 1063.5574  -9.387  444.1807  964.7643  -9.392      885.29 0.058
  778.0612 1084.6756  -9.300  773.6965  965.2611  -9.301      713.71 0.076
  416.7307 1062.6827  -7.341  409.4273  966.0654  -7.346      110.14 0.370
  175.5938 1049.6070 -10.593  165.8944  968.2332 -10.600     2540.93 0.027
  394.5574 1063.4910  -8.657  387.0367  968.2816  -8.662      401.72 0.094
  565.0261 1073.6677  -8.877  558.9965  967.7002  -8.881      491.60 0.137
  708.0362 1082.6929  -7.649  703.1536  967.7031  -7.651      164.81 0.157
 1001.7491 1102.8368  -7.297  998.8159  969.3038  -7.297      106.59 0.265
   54.2944 1043.3874  -7.964   43.2801  969.6806  -7.972      193.23 0.137
  252.4029 1055.5878  -7.333  243.4890  969.3663  -7.339      102.42 0.284
  872.4024 1095.6575  -7.392  868.6596  970.2942  -7.392      105.13 0.245
  470.7226 1070.7302  -9.590  463.8780  970.7180  -9.595      990.18 0.056
  672.9517 1084.1560  -9.244  667.7679  971.3827  -9.247      701.64 0.355
  721.0468 1086.4361  -7.800  716.2488  970.6295  -7.802      184.49 0.147
  839.4265 1094.0702  -9.507  835.4634  970.7894  -9.508      868.41 0.061
  603.3840 1080.5115  -8.168  597.6486  972.1312  -8.171      230.01 0.285
  746.9299 1089.7272  -8.044  742.3148  972.2888  -8.046      203.13 0.158
   62.6458 1047.6826  -9.213   51.7013  973.4611  -9.221      579.15 0.068
   71.6661 1048.7893  -9.030   60.8181  973.9996  -9.038      629.49 0.078
  231.8478 1058.3824  -7.553  222.7020  973.4713  -7.560      143.81 0.252
   24.5018 1046.6248  -7.563   13.0904  974.7934  -7.572      141.18 0.233
  780.2644 1094.6913  -8.771  775.8766  975.1523  -8.773      436.25 0.214
  833.4395 1099.4356  -7.562  829.4147  976.5404  -7.563      126.42 0.233
  716.5427 1093.2441  -6.866  711.6821  977.7337  -6.868       84.48 0.398
   63.9690 1054.0509  -7.699   53.0011  979.7675  -7.707      159.76 0.349
  193.6046 1062.6087  -7.301  184.0264  980.1338  -7.308      118.82 0.180
  355.1100 1072.3575 -12.835  347.1568  979.6733 -12.841    20240.51 0.016
  612.7667 1088.7528  -8.821  607.0732  979.7949  -8.824      487.38 0.130
  979.7751 1111.6190  -7.421  976.6782  979.4841  -7.421      101.66 0.259
  941.5948 1110.9763  -8.160  938.2581  981.2552  -8.160      235.06 0.122
  952.8147 1111.4136 -11.391  949.5486  980.9834 -11.391     4988.44 0.030
  529.9197 1086.3015 -11.209  523.5277  982.5816 -11.214     3638.23 0.030
  367.2380 1076.8203  -7.381  359.3824  983.3787  -7.387      105.88 0.381
  140.1800 1065.2539 -10.347  130.0051  986.1747 -10.355     1987.95 0.039
  420.7667 1082.7349  -8.573  413.4032  985.9124  -8.578      345.00 0.111
  475.1432 1086.0649 -11.763  468.2654  985.8093 -11.768     7621.06 0.021
  615.9542 1095.0678  -9.610  610.2596  985.9206  -9.613     1082.85 0.054
  934.7831 1115.3019  -8.267  931.3876  986.0165  -8.267      250.30 0.202
  517.0297 1090.3079 -10.581  510.5062  987.4123 -10.586     1999.30 0.040
  701.2096 1101.6467  -8.030  696.1754  987.1165  -8.032      227.75 0.182
  154.0806 1068.2211  -7.806  144.0419  988.2701  -7.814      185.01 0.211
  458.9787 1087.1789  -9.308  451.9484  987.9489  -9.313      742.16 0.091
  564.0763 1093.4968  -7.061  557.9489  987.6305  -7.064       90.87 0.371
  588.1424 1095.8222  -9.370  582.2106  988.4372  -9.374      720.17 0.061
  394.6981 1083.6424  -7.179  387.0779  988.4765  -7.184       93.64 0.259
  692.3710 1103.2638  -7.643  687.2605  989.2958  -7.646      140.23 0.224
  915.2056 1118.4107 -10.639  911.6709  990.3678 -10.639     2302.58 0.087
  273.1227 1078.5271  -7.528  264.3018  991.0601  -7.535      119.08 0.260
   58.6906 1065.4739  -6.994   47.5926  991.5655  -7.003       72.83 0.286
  429.1308 1089.3228  -9.154  421.8142  991.9874  -9.159      705.47 0.083
  601.3901 1099.9805  -8.497  595.5519  991.7653  -8.501      315.42 0.103
  866.9930 1117.7246 -10.249  863.1339  992.7322 -10.250     1872.40 0.039
  101.6650 1070.3308  -8.656   91.0296  993.7122  -8.665      422.85 0.103
  647.9456 1105.3042  -8.102  642.4701  994.1521  -8.105      205.83 0.183
  213.6995 1078.8716  -9.919  204.2478  995.1734  -9.926     1341.46 0.060
  550.2676 1099.6263  -7.821  543.9924  994.6477  -7.825      199.23 0.146
  193.0511 1078.1167  -6.200  183.3811  995.7256  -6.207       47.60 0.481
  203.9651 1078.8763 -10.757  194.4084  995.7953 -10.765     2759.06 0.035
  238.2835 1081.6262 -10.994  229.0796  996.3776 -11.001     3511.01 0.031
  388.0823 1091.0041  -8.888  380.3604  996.2781  -8.894      440.82 0.093
  587.5389 1103.6318  -9.278  581.5671  996.3013  -9.282      603.02 0.106
  563.3643 1102.2730 -10.971  557.1910  996.4707 -10.975     3141.67 0.031
  254.1852 1084.1527  -6.657  245.1358  997.9034  -6.664       77.29 0.371
  679.5357 1110.9458 -10.577  674.2911  997.8044 -10.580     1737.39 0.443
   32.6896 1070.8676  -8.268   21.2325  998.6037  -8.277      267.67 0.155
  315.3973 1089.9407  -6.397  306.9511  999.8272  -6.403       55.86 0.464
  891.2327 1126.5005 -10.082  887.5086  999.9855 -10.083     1358.71 0.061
  917.4763 1128.2620  -7.177  913.9227 1000.0877  -7.178       94.00 0.406
  709.8474 1116.1106  -7.212  704.8401 1001.0640  -7.215      112.63 0.297
   39.9402 1074.4568  -7.636   28.5691 1001.7712  -7.644      137.84 0.192
  849.4176 1126.3156  -9.034  845.4053 1002.4479  -9.035      472.04 0.110
  998.2585 1135.2230  -9.599  995.2006 1001.9417  -9.599     1031.67 0.067
   69.5418 1077.6108  -8.598   58.4957 1003.0569  -8.606      340.69 0.112
  444.8350 1101.2115  -6.117  437.6066 1002.9125  -6.122       37.34 0.437
  636.2295 1113.8784 -12.691  630.6208 1003.4852 -12.695    14843.64 0.016
  792.8318 1123.3775  -6.717  788.4247 1003.0880  -6.719       63.40 0.386
   81.7500 1079.6221  -7.032   70.8323 1004.3003  -7.041      101.95 0.336
  715.4985 1119.2292  -8.689  710.5224 1003.8303  -8.692      408.94 0.107
  726.3889 1120.4733  -9.780  721.4923 1004.3869  -9.783      950.26 0.074
  935.7237 1132.8229  -7.223  932.2750 1003.4990  -7.224       98.29 0.244
  511.4852 1107.0429  -6.633  504.8347 1004.5372  -6.637       61.61 0.402
  656.1980 1117.7963  -9.449  650.7361 1006.1462  -9.453      840.76 0.083
  346.2093 1099.1561 -10.177  338.0287 1007.1122 -10.183     1782.35 0.041
   41.0161 1080.8041  -7.130   29.6185 1008.0736  -7.139       96.62 0.325
  116.0141 1085.3025  -7.447  105.4528 1007.8249  -7.456      129.60 0.180
  383.2627 1102.2619  -8.989  375.4366 1007.8731  -8.995      510.00 0.101
  998.1220 1141.1014  -8.500  995.0446 1007.8351  -8.500      383.27 0.123
  138.5103 1088.8939  -7.285  128.1808 1010.0003  -7.293      131.68 0.218
  543.4687 1113.9740  -7.508  537.0684 1009.4587  -7.512      124.27 0.202
  210.7539 1093.8619  -7.079  201.1883 1010.3983  -7.086       88.72 0.339
   75.7006 1086.6019  -8.217   64.6713 1011.6894  -8.226      236.96 0.167
  526.8973 1115.5309  -7.834  520.3438 1012.0693  -7.838      191.11 0.170
  867.4939 1137.3201  -7.105  863.5676 1012.3243  -7.106       85.12 0.294
  351.0536 1105.2793  -8.192  342.8904 1012.9455  -8.198      285.14 0.198
  585.9835 1120.2601 -12.173  579.9242 1013.0643 -12.177    11705.56 0.023
  639.1502 1122.9865 -10.081  633.5262 1012.4270 -10.084     1171.96 0.075
  127.5730 1091.8705 -10.191  117.1037 1013.6818 -10.200     1805.20 0.038
  915.1624 1142.1746  -9.985  911.5453 1014.1654  -9.986     1326.81 0.053
  468.3831 1114.8164 -10.465  461.3064 1015.0609 -10.470     2296.96 0.041
  533.5612 1118.8019  -7.602  527.0513 1014.9259  -7.606      164.11 0.230
  937.6872 1145.7987  -7.132  934.2075 1016.3671  -7.133       93.11 0.400
  265.2916 1103.8709  -8.222  256.2528 1016.9783  -8.229      291.57 0.140
  716.4499 1131.8738  -9.428  711.4290 1016.4383  -9.431      677.75 0.084
  216.0050 1101.4269  -6.423  206.4546 1017.6547  -6.430       50.53 0.384
  666.3316 1130.3350  -8.339  660.8986 1018.0681  -8.343      335.76 0.154
  576.8010 1125.2258 -10.098  570.6404 1018.6233 -10.102     1110.26 0.400
  776.9630 1138.3593  -6.468  772.3798 1019.1006  -6.470       44.59 0.467
#
#....u.... ....v.... ...w... ....X.... ....Y.... ...M... .....p..... ..q..  
#
#  (01)      (02)     (03)     (04)      (05)     (06)      (07)     (08)   
#
