#
#--------------------------------------------
# ARGUMENTS
#--------------------------------------------
#  ARG0000: /g/lu/code/fortran/hst1pass/CODE/hst1pass/hst1pass
#  ARG0001: HMIN=5
#  ARG0002: FMIN=25
#  ARG0003: PSF=/g/lu/code/fortran/hst1pass/LIB/PSFs/STDPSFs/WFC3UV/STDPSF_WFC3UV_F814W.fits
#  ARG0004: GDC=/g/lu/code/fortran/hst1pass/LIB/GDCs/STDGDCs/WFC3UV/STDGDC_WFC3UV_F814W.fits
#  ARG0005: PMAX=99999
#  ARG0006: CMIN=-1.0
#  ARG0007: CMAX=0.1
#  ARG0008: QMAX=0.5
#  ARG0009: PERT=0
#  ARG0010: WCS=MAT
#  ARG0011: ART_UVW=FAKE.UVW
#  ARG0012: SHOW_ART-
#  ARG0013: OUT=uvwXYMpq
#  ARG0015: ../00.DATA/ie8j01xmq_flt.fits
#
#=================================
# WFC3/UVIS POSTFLASH INFO
#
# FLSHCORR: 'COMPLETE'
# FLASHDUR:                  3.9               3.90
# FLASHLVL:                   10              10.00
# FLASHLVL:                   10              10.00
# FLASHCUR: 'LOW    '                           L
# SHUTRPOS: 'A    '                             A
# DARKTIME:            96.739296              96.74
# DARKEST :                                    1.03 2020.20
#
#
#================================
# BASIC STAR-FINDING PARAMETERS
#
# FILENAME: ../00.DATA/ie8j01xmq_flt.fits
#   NAXIS1:  4096
#   NAXIS2:  4096
#
#   CRPIX1:     512.0000000000000000000000
#   CRPIX2:     511.0000000000000000000000
#   CRVAL1:     271.4793802753100067093328
#   CRVAL2:     -30.3370124313310007835298
#    CD1_1:       0.0000075969050041170608
#    CD1_2:       0.0000080216305677613700
#    CD2_1:       0.0000080216305677613700
#    CD2_2:      -0.0000075969050041170608
#
#     HMIN:          5
#     PMAX:      99999.0
#     FMIN:         25.0        25.0
# HISTMODE:          7.8
# HIFLAG  :      64000
# HIFLAG_I:      64000
# LOFLAG_I:        -50
# DOAPPHOT:          F
#      PID:      16067
#     FILT:      F814W
#    EXPTI:         87.0000
#    EXPTE:         87.0000
#     rDAT:       2020.19905472
#  TIMESTR:      '15:44:29'
#  DATESTR:      '2020-03-13'
# APERTURE:      'UVIS2-C1K1C-SUB '
#     GAIN:          0.00
#
#  PSF_INP: /g/lu/code/fortran/hst1pass/LIB/PSFs/STDPSFs/WFC3UV/STDPSF_WFC3UV_F814W.fits
#  PSF_USE: /g/lu/code/fortran/hst1pass/LIB/PSFs/STDPSFs/WFC3UV/STDPSF_WFC3UV_F814W.fits
#   NPERTs:    0
#
#  GDC_INP: /g/lu/code/fortran/hst1pass/LIB/GDCs/STDGDCs/WFC3UV/STDGDC_WFC3UV_F814W.fits
#
#
#================================
# PSF INFO
#
# PSFFILE_USE: /g/lu/code/fortran/hst1pass/LIB/PSFs/STDPSFs/WFC3UV/STDPSF_WFC3UV_F814W.fits
#
#      CENTRAL PIXEL ARRAY
#                           0000    0682    1365    2048    2731    3413    4096
#                             01      02      03      04      05      06      07
#               4096 08   0.1531  0.1594  0.1651  0.1662  0.1672  0.1688  0.1687
#               3413 07   0.1590  0.1618  0.1645  0.1658  0.1668  0.1677  0.1687
#               2731 06   0.1629  0.1645  0.1651  0.1659  0.1677  0.1684  0.1694
#               2049 05   0.1632  0.1655  0.1663  0.1663  0.1686  0.1697  0.1700
#               2048 04   0.1623  0.1666  0.1690  0.1680  0.1692  0.1719  0.1743
#               1365 03   0.1644  0.1668  0.1668  0.1673  0.1716  0.1733  0.1736
#               0682 02   0.1648  0.1656  0.1645  0.1696  0.1791  0.1741  0.1704
#               0000 01   0.1629  0.1640  0.1643  0.1746  0.1842  0.1734  0.1678
#
#
#=================================
# FRAME INFO
#
#      WCSMODE: MAT
#
#  WCSMODE: MAT
#    MFILE: ie8j01xmq_mat.UVuvWw
#    NMATs:   255
#       AB:     1.000014   -0.000001
#       CD:     0.000041    0.999955
#        1:   515.82  630.73
#        2:   521.31  631.05
#       ZP:     0.00
#
#
#        INST1:        512.00      0.00000760  0.00000802       271.4793803  18:05:55.05
#            2:        511.00      0.00000802 -0.00000760       -30.3370124 -30:20:13.24       39.773
#        -----     ----------     ----------- -----------      ------------ ------------     ---------
#        FRAME         CRPIX         CD_1        CD_2           RADEC(DEG)  RADEC(SEXIG)     (mas/pix)
#        -----     ----------     ----------- -----------      ------------ ------------     ---------
#        DEST1:         -0.00     -0.00000000 -0.00000000        -0.0000000  00:00:00.00        0.000
#            2:         -0.00     -0.00000000 -0.00000000        -0.0000000 -00:00:00.00
#
#
# ARTSTARS:     1
#   ASTYPE:   UVW
#  ARTFILE: ie8j01xmq_art.xymnfo
#
#  MATFILE: ie8j01xmq_mat.UVuvWw
#    NMATs:   255
#       AB:     1.000014   -0.000001
#       CD:     0.000041    0.999955
#        1:   515.82  630.73
#        2:   521.31  631.05
#       ZP:     0.00
#
#=======================================
# FINDING STATISTICS
#
#  WHY    NPIX      %PIX   EXPLANATION
#  --- --------  -------   -------------
#   1 15657035   93.323%   ..1..not on chip....
#   2   940144    5.604%   ..2..not loc max....
#   3    87342    0.521%   ..3..h < hmax.......
#   4     3320    0.020%   ..4..flux too low...
#   5        0    0.000%   ..5..below mask thr.
#   6        0    0.000%   ..6..out of bounds..
#   7        0    0.000%   ..7..loflag issues..
#   8        0    0.000%   ..8..saturated......
#   9        4    0.000%   ..9..not contig sat.
#  10        0    0.000%   .10..not loc sat max
#  11        0    0.000%   .11..sat weirdness..
#  12     4228    0.025%   .12..pk but not qsel
#  13     1462    0.009%   .13..pk too peaky...
#  14        0    0.000%   .14..satd CR........
#  15     1856    0.011%   .15..good unsat.....
#  16        5    0.000%   .16..good satd......
#
#
#=======================================
# LUMINOSITY FUNCTION EXTRACTED
#
#    MAG   LFe    CUMe      LFe/s CUMe/s
#-------- -----  ------   ------- ------
# LF -18      1      1          0      0
# LF -17      0      1          0      0
# LF -16      0      1          0      0
# LF -15      2      3          0      0
# LF -14     12     15          0      0
# LF -13     13     28          1      1
# LF -12     24     52          0      1
# LF -11    103    155          0      1
# LF -10    227    382          3      4
# LF  -9    335    717         13     17
# LF  -8    420   1137         15     32
# LF  -7    521   1658         25     57
# LF  -6    203   1861        128    185
# LF  -5      0   1861        248    433
# LF  -4      0   1861        352    785
# LF  -3      0   1861        423   1208
# LF  -2      0   1861        526   1734
# LF  -1      0   1861        127   1861
#-------- -----  ------   ------- ------
#
#
#=====================================
# BOUNDARY INFO   INST=8 Ks=2
#
# -----------     ------------- -------------     ------------- -------------     ------------- -------------     ------------- -------------
#     SYS CHP         P1a           P1b               P2a           P2b               P3a           P3b               P4a           P4b
# -----------     ------------- -------------     ------------- -------------     ------------- -------------     ------------- -------------
# BDRY_xy_K1:         1.0000000     2.0000000      1025.0000000     2.0000000      1025.0000000  1025.0000000         1.0000000  1025.0000000
# BDRY_uv_K1:         6.5533200    73.2765900      1024.8520600   134.8837700      1027.9537700  1160.1370600        12.8410400  1095.9083900
# BDRY_rd_K1:       271.4698647   -30.3369918       271.4794005   -30.3292917       271.4889569   -30.3370553       271.4794247   -30.3447105
# BDRY_UV_K1:         6.5533200    73.2765900      1024.8520600   134.8837700      1027.9537700  1160.1370600        12.8410400  1095.9083900
# -----------     ------------- -------------     ------------- -------------     ------------- -------------     ------------- -------------
# BDRY_xy_K2:      4095.0000000  4095.0000000      4095.0000000  4095.0000000      4095.0000000  4095.0000000      4095.0000000  4095.0000000
# BDRY_uv_K2:      4085.5385400  4454.7187200      4085.5385400  4454.7187200      4085.5385400  4454.7187200      4085.5385400  4454.7187200
# BDRY_rd_K2:       271.5464915   -30.3375403       271.5464915   -30.3375403       271.5464915   -30.3375403       271.5464915   -30.3375403
# BDRY_UV_K2:      4085.5385400  4454.7187200      4085.5385400  4454.7187200      4085.5385400  4454.7187200      4085.5385400  4454.7187200
# -----------     ------------- -------------     ------------- -------------     ------------- -------------     ------------- -------------
#
#
#===================================================
#  FILEOUT: ie8j01xmq_flt.uvwXYMpq                                                          
#---------------------------------------------------
# (01)  u -- u ref-frame           c002-c010    F001
# (02)  v -- v ref-frame           c012-c020    F002
# (03)  w -- dist-corr inst mag    c022-c028    F044
# (04)  X -- dist-cor x posn       c030-c038    F008
# (05)  Y -- dist-cor y posn       c040-c048    F009
# (06)  M -- instl mag (1000s)     c050-c056    F003
# (07)  p -- peak pixel value      c058-c068    F018
# (08)  q -- quality of fit        c070-c074    F019
#---------------------------------------------------
#
#  (01)      (02)     (03)     (04)      (05)     (06)      (07)     (08)   
#
#....u.... ....v.... ...w... ....X.... ....Y.... ...M... .....p..... ..q..  
#
  163.1255   86.7585 -12.673  158.7864    5.9838 -12.671    18284.76 0.033
  366.8454   99.3525  -9.288  363.9407    6.2220  -9.284      797.52 0.050
  902.9401  131.1858  -7.143  902.6855    5.6561  -7.135      101.92 0.165
  177.6962   88.8444  -7.309  173.4596    7.1847  -7.306      120.90 0.231
   70.3762   83.0377  -6.192   65.3016    7.8694  -6.191       40.10 0.443
  195.0219   92.8123 -12.373  190.8971   10.0957 -12.371    14249.29 0.027
  372.1895  104.1540  -6.925  369.2963   10.6846  -6.921       77.74 0.202
  976.0454  143.3975  -6.793  976.0150   13.4041  -6.784       86.60 0.330
 1010.2600  145.4398  -7.322 1010.3318   13.3797  -7.313      115.39 0.201
  215.4176   97.6025  -8.290  211.4239   13.6372  -8.287      255.29 0.106
  458.9806  113.2631 -10.757  456.6001   14.5230 -10.752     2444.02 0.030
  559.1029  119.0452 -11.581  557.2766   14.2464 -11.575     6258.55 0.025
  699.1652  127.7439  -9.692  698.0275   14.4556  -9.685     1047.81 0.056
  716.0334  128.4758  -8.831  715.0138   14.1963  -8.824      760.52 0.352
  572.5146  120.5132  -7.497  570.7560   14.8988  -7.491      143.64 0.165
  916.3402  141.1406  -7.852  916.1029   14.7563  -7.843      205.85 0.151
  492.7387  116.8359  -8.776  490.5428   16.0481  -8.770      466.06 0.059
  931.7382  143.5692  -8.997  931.5500   16.2453  -8.988      534.66 0.045
  959.3925  144.5571  -8.169  959.3007   15.5617  -8.160      253.33 0.102
  981.0805  146.0557  -7.382  981.0585   15.7463  -7.373      137.14 0.191
  815.5357  137.6296  -8.284  814.9158   17.3287  -8.276      322.68 0.110
  292.0206  106.6303  -9.274  288.5516   18.0009  -9.271      744.46 0.070
  759.4748  134.7229  -7.930  758.6276   17.8050  -7.923      231.64 0.155
  617.9032  127.9689  -6.928  616.3562   19.5846  -6.922       72.62 0.217
  658.3598  130.5879 -10.146  657.0096   19.7505 -10.140     1755.59 0.051
  209.1548  104.4333  -9.860  205.0741   20.8269  -9.857     1319.80 0.042
  366.2683  114.0406  -8.786  363.2839   20.8967  -8.782      487.20 0.066
  963.8160  150.2746 -10.355  963.7211   20.9853 -10.346     2140.74 0.034
  735.5200  137.5542  -8.325  734.5544   22.0649  -8.318      302.44 0.111
  870.9705  145.3489  -6.728  870.5416   21.6803  -6.719       63.72 0.324
  295.4711  111.8415  -6.769  291.9992   22.9871  -6.766      102.71 0.497
  605.7777  130.6197  -7.712  604.1548   22.9573  -7.706      187.17 0.136
  578.4426  129.5642  -7.620  576.6762   23.5567  -7.615      144.91 0.134
  838.5266  145.7968  -6.895  837.9697   24.0772  -6.887      100.85 0.234
 1001.0712  156.4059  -7.650 1001.0803   24.8446  -7.641      169.59 0.167
  137.0448  105.0508  -9.704  132.3896   25.7991  -9.702     1063.47 0.061
  699.1296  138.9677  -8.650  697.9453   25.6349  -8.643      426.87 0.070
  814.2638  146.0124  -6.844  813.6080   25.7508  -6.836       85.40 0.299
  381.8757  121.5800 -10.489  378.9586   27.4678 -10.485     2189.55 0.030
  477.4876  126.9959  -6.300  475.1523   27.0911  -6.295       56.34 0.377
  278.0546  115.6058  -8.623  274.4346   27.7944  -8.620      410.67 0.086
  398.0247  123.1027  -6.386  395.2083   28.0087  -6.381       59.97 0.488
  860.3596  151.1081  -7.063  859.8693   28.0518  -7.054      105.15 0.329
  953.5480  157.0106  -9.631  953.3948   28.3085  -9.622      948.95 0.058
  644.9375  138.6486  -8.681  643.4853   28.5896  -8.675      379.78 0.091
  900.7343  155.6876  -6.428  900.3881   30.1766  -6.419       56.38 0.390
   16.9889  103.2139  -7.547   11.3375   31.2328  -7.546      150.92 0.178
  220.3305  114.9106  -7.196  216.2773   30.5967  -7.193      107.38 0.273
  332.4952  123.2056 -10.795  329.2283   32.0755 -10.791     3279.52 0.035
  490.1542  133.0605  -7.610  487.8656   32.3700  -7.605      170.10 0.314
  504.0456  134.7589  -7.344  501.8311   33.2240  -7.339      117.35 0.271
  661.4372  143.7429  -6.961  660.0476   32.6672  -6.955      106.45 0.265
  930.8747  160.3888  -6.453  930.6276   33.0384  -6.444       67.29 0.383
  168.1759  115.5769  -6.832  163.7095   34.4158  -6.830       79.43 0.250
   88.7506  111.4239  -7.584   83.6574   35.0741  -7.583      142.47 0.234
  224.7728  119.5224  -6.877  220.7281   34.9261  -6.875       80.21 0.374
  881.7809  160.6061 -10.189  881.3429   36.2160 -10.180     1668.50 0.045
  908.3568  161.7670  -7.128  908.0196   35.7684  -7.119      107.14 0.262
  783.9348  155.5122 -10.110  783.1157   37.0342 -10.102     1795.10 0.033
  856.3933  161.0688  -6.543  855.8527   38.2063  -6.534       82.22 0.399
  751.8420  155.4510  -8.818  750.8810   38.9051  -8.811      431.24 0.217
  802.9034  158.9448  -7.826  802.1528   39.3106  -7.818      221.36 0.194
 1005.4392  172.2608  -6.263 1005.4126   40.3606  -6.253       51.72 0.393
  957.3277  169.9324  -9.342  957.1459   40.9423  -9.333      880.94 0.038
  388.6954  136.8959  -7.655  385.7462   42.3219  -7.651      169.40 0.130
  584.2226  148.2549  -8.434  582.4049   41.8271  -8.428      346.50 0.122
  853.5839  165.8658  -8.450  853.0154   43.1511  -8.442      406.30 0.084
  903.5184  169.1719  -8.724  903.1373   43.4316  -8.716      445.62 0.094
  130.3339  122.3518  -6.864  125.5214   43.4602  -6.863       79.22 0.218
  976.2802  174.0810  -9.748  976.1521   43.9284  -9.739     1234.73 0.040
  290.1768  133.2686  -8.697  286.5510   44.6701  -8.694      371.87 0.134
  408.8030  140.6977  -8.304  405.9694   44.8947  -8.300      325.44 0.134
   23.7646  117.8562 -10.328   18.0807   45.4305 -10.327     1654.90 0.129
  346.4374  137.7871  -7.633  343.1924   45.7683  -7.630      180.98 0.137
  462.6241  144.8817  -7.134  460.1118   45.8123  -7.130      155.56 0.344
  320.0615  137.3664  -8.417  316.6315   46.9458  -8.414      367.10 0.092
  475.3355  146.5591  -7.491  472.8929   46.7161  -7.486      143.10 0.203
  716.5818  161.6078  -7.453  715.4329   47.1602  -7.446      132.59 0.142
  486.9024  148.8662  -6.340  484.5188   48.3165  -6.335       62.44 0.341
  660.8593  158.9514 -10.242  659.4034   47.8514 -10.235     1791.12 0.032
   74.0655  124.5991 -10.279   68.7670   49.1058 -10.278     2002.94 0.049
  381.3654  143.6788  -8.495  378.3317   49.5273  -8.491      318.36 0.103
  452.4497  148.5269 -10.276  449.8566   50.0600 -10.271     2042.11 0.034
  598.9943  156.8743  -5.986  597.2199   49.5213  -5.980       42.85 0.474
   59.6871  125.5949  -7.924   54.2586   50.9694  -7.924      203.28 0.184
  217.6841  135.5145  -6.521  213.4945   51.3023  -6.518       64.99 0.390
   98.9195  130.4126  -7.752   93.7969   53.4014  -7.751      186.26 0.155
  460.6934  151.7268  -7.760  458.1358   52.7511  -7.756      212.48 0.148
  276.0936  141.7998  -9.488  272.3168   54.0299  -9.485      944.56 0.072
  291.7580  142.9713  -8.238  288.0916   54.2488  -8.235      290.91 0.132
  784.6190  172.9685  -8.954  783.7374   54.3762  -8.947      529.14 0.067
  814.4066  173.8440  -7.312  813.6498   53.4537  -7.304      105.67 0.139
  843.7598  178.2419  -7.670  843.1083   56.0648  -7.662      185.84 0.187
  856.7213  178.9845  -8.384  856.1191   56.0235  -8.376      390.02 0.118
  110.2202  134.4168  -9.623  105.1686   56.7120  -9.622     1072.63 0.046
  377.8885  150.2321  -6.713  374.7974   56.2709  -6.709       74.20 0.298
 1003.7584  188.6607 -10.245 1003.6753   56.7846 -10.236     1863.39 0.037
  143.0938  138.1159  -8.716  138.2929   58.4122  -8.714      386.34 0.080
  209.3096  141.3413  -8.998  205.0213   57.6206  -8.996      572.52 0.068
  356.2341  150.9803  -9.500  352.9891   58.3283  -9.496      920.79 0.050
  409.5138  153.4263  -9.096  406.6207   57.5401  -9.092      557.88 0.078
 1018.5277  190.3035  -8.329 1018.4868   57.5295  -8.319      292.95 0.124
  252.1857  145.4865  -8.430  248.2077   59.1552  -8.428      373.94 0.095
  468.9386  158.5398 -10.796  466.3989   59.0431 -10.791     3048.72 0.025
  562.1598  165.3777  -8.833  560.1412   60.2207  -8.827      467.44 0.167
  609.5731  167.5828  -8.181  607.8097   59.5505  -8.175      278.59 0.119
  658.7391  171.1935 -10.191  657.2213   60.1749 -10.185     1859.94 0.041
  552.8960  166.0558  -9.092  550.8209   61.4567  -9.087      621.36 0.057
 1011.4661  192.9554  -7.724 1011.3946   60.5947  -7.714      175.57 0.151
  307.1222  151.8567  -8.875  303.5217   62.1773  -8.872      469.40 0.058
  449.6118  161.8421 -10.623  446.9355   63.5033 -10.619     2321.89 0.042
  518.2961  165.2262  -7.328  516.0223   62.7225  -7.323      126.35 0.205
  540.8226  166.6526  -7.990  538.6744   62.7817  -7.985      217.54 0.143
  171.0264  145.1629 -14.107  166.4114   63.7505 -14.105    59345.83 0.027
   67.0210  140.2265  -6.370   61.5657   65.1240  -6.370       57.49 0.401
  517.1120  171.2993  -8.905  514.8028   68.8461  -8.900      561.69 0.050
  588.3588  175.8089  -8.828  586.4420   69.0297  -8.823      476.09 0.073
  618.2475  177.7263  -6.941  616.4874   69.1321  -6.936       95.55 0.349
  788.3082  187.8808  -8.603  787.3871   69.0049  -8.595      410.08 0.090
   20.6395  142.1509  -9.241   14.7726   69.8591  -9.241      740.41 0.076
  260.3030  157.2045  -6.234  256.3227   70.3486  -6.231       41.38 0.460
   87.5418  146.9279  -7.767   82.2223   70.5672  -7.766      181.60 0.141
  596.1737  177.9480  -6.812  594.2912   70.6882  -6.807       87.22 0.263
  231.1577  157.0072  -7.124  226.9531   71.9193  -7.122      115.72 0.243
  438.2925  169.1973  -8.040  435.5081   71.5201  -8.036      191.90 0.138
  846.0655  193.9340  -8.234  845.3677   71.5510  -8.226      249.52 0.157
  902.2510  197.9637 -11.202  901.7674   72.1723 -11.194     4593.84 0.038
  989.8265  202.8400  -6.552  989.6528   71.7390  -6.543       69.54 0.339
  801.7525  193.3921  -7.855  800.8699   73.6831  -7.847      208.38 0.142
  287.8060  163.3402  -7.921  284.0007   74.7995  -7.918      212.02 0.185
  607.3333  182.8610  -7.570  605.4912   74.9084  -7.564      146.44 0.159
  671.3655  187.2628 -10.979  669.8461   75.4205 -10.973     3364.19 0.079
  143.6776  156.2747  -6.957  138.7746   76.4908  -6.956       96.26 0.348
  789.7150  195.2442 -10.996  788.7726   76.2537 -10.989     3683.28 0.030
  735.2832  192.8403  -7.552  734.1001   77.1430  -7.546      177.34 0.138
  400.5433  173.3846  -9.046  397.4890   77.9810  -9.042      563.79 0.060
  579.0830  183.8321 -10.747  577.0782   77.5855 -10.742     2869.93 0.023
  595.8612  185.1685  -8.131  593.9452   77.9018  -8.126      285.84 0.106
  436.3888  176.3934 -10.424  433.5567   78.8091 -10.420     1961.50 0.033
  931.5587  206.7174  -6.577  931.1604   79.1177  -6.568       62.16 0.403
   59.3620  155.6581  -8.727   53.7446   80.9864  -8.726      508.21 0.100
  201.4940  164.6066  -8.496  197.0116   81.2983  -8.494      405.33 0.062
  531.0406  185.1188  -6.675  528.7493   81.7754  -6.670       88.20 0.336
  328.2851  173.6690  -7.278  324.7229   82.6449  -7.275      138.18 0.254
  685.8808  197.1354  -9.525  684.3953   84.3784  -9.518      847.46 0.046
  737.8763  199.6789  -9.408  736.6789   83.7988  -9.401      845.24 0.056
  109.5682  163.1063  -9.382  104.3388   85.3740  -9.381      733.94 0.076
  864.0067  208.2203  -8.364  863.3315   84.6953  -8.356      295.98 0.099
  628.6418  195.4430  -6.620  626.8621   86.1559  -6.615       75.54 0.335
  283.3446  175.0495  -8.595  279.4425   86.7476  -8.592      377.49 0.066
  322.6558  177.6701  -9.291  319.0316   86.9763  -9.288      831.47 0.064
  522.6974  189.9191  -9.837  520.3345   87.0645  -9.832     1258.31 0.039
  752.5313  203.6875  -9.547  751.3875   86.9074  -9.541      771.77 0.331
  892.0412  211.9066 -10.528  891.4691   86.6723 -10.520     2118.39 0.026
  983.2356  217.9934  -7.347  982.9913   87.2227  -7.338      120.57 0.262
  363.2092  181.2442  -7.752  359.8565   88.0811  -7.749      192.42 0.339
  912.9529  214.2871  -9.090  912.4568   87.7790  -9.082      554.45 0.088
   59.1295  163.2689  -7.565   53.4631   88.5955  -7.565      133.17 0.247
  225.1017  173.4890  -6.209  220.7574   88.7253  -6.207       51.18 0.383
  621.8658  197.6271  -7.734  620.0397   88.7423  -7.728      194.36 0.193
  249.5489  176.2651  -7.297  245.3809   90.0105  -7.295      121.02 0.210
  432.0494  186.8609 -10.298  429.1373   89.5077 -10.294     1843.76 0.044
  179.5589  172.5085  -8.608  174.8549   90.5102  -8.606      402.65 0.116
  270.8956  178.4613  -9.418  266.8803   90.9056  -9.416      909.46 0.064
  333.9129  183.3973  -8.171  330.3402   92.0050  -8.168      266.80 0.086
  763.0575  209.5186  -6.383  761.9404   92.0807  -6.377       63.32 0.412
  908.9143  218.3715  -6.813  908.3884   92.0900  -6.805       79.14 0.393
  957.3416  221.3263  -6.065  956.9927   92.1056  -6.057       43.39 0.475
  748.6767  209.6027  -7.871  747.4919   93.0327  -7.864      204.42 0.163
  149.9589  174.3556  -7.880  145.0017   94.1479  -7.879      219.30 0.129
  347.4613  186.5979  -9.055  343.9691   94.3749  -9.052      579.73 0.075
  541.4221  198.2885  -6.337  539.1322   94.2718  -6.332       62.41 0.412
  839.1630  215.8285  -9.003  838.3588   93.7712  -8.996      556.90 0.092
  191.8322  178.0009  -6.464  187.1959   95.2449  -6.462       57.25 0.453
  672.4217  207.4231  -9.896  670.8247   95.4432  -9.890     1249.48 0.032
  863.4217  219.1549  -8.085  862.7061   95.6196  -8.078      237.70 0.137
  474.2640  197.0879 -12.745  471.5712   97.1448 -12.741    17464.19 0.018
   43.1423  171.3040  -6.498   37.2842   97.5847  -6.498       57.97 0.430
  588.0114  204.4947  -7.140  585.9658   97.6356  -7.134       97.66 0.236
  967.2958  229.1645  -8.019  966.9583   99.3084  -8.010      240.80 0.137
 1016.3891  231.7244  -9.202 1016.2141   98.8899  -9.193      742.30 0.060
  107.0575  178.1879  -6.359  101.7161  100.5748  -6.358       56.94 0.405
  122.2369  178.4631  -7.086  117.0232   99.9281  -7.085      120.99 0.256
  409.7033  195.8961 -10.017  406.5975   99.8713 -10.013     1416.64 0.044
  758.5501  217.6329  -9.623  757.3809  100.4362  -9.617      898.21 0.044
  212.2864  186.4080  -8.633  207.7673  102.3896  -8.632      370.01 0.118
  650.7874  213.1375  -6.937  649.0522  102.4471  -6.931       91.60 0.180
  482.2982  203.1925 -10.569  479.6263  102.7432 -10.565     2305.27 0.044
  262.9057  191.0305  -6.519  258.7603  103.9271  -6.517       74.09 0.458
 1009.4324  236.2787  -9.644 1009.2202  103.8446  -9.636     1077.46 0.080
  236.1909  192.3859  -8.938  231.8289  106.9012  -8.936      591.43 0.081
  255.1891  194.1704  -8.061  250.9665  107.5276  -8.059      222.58 0.136
  520.1116  209.8896  -7.170  517.6402  107.1260  -7.166      103.39 0.176
  178.6280  189.5288  -6.301  173.8185  107.5461  -6.299       56.45 0.414
  218.9180  192.6490  -9.726  214.4170  108.2126  -9.725      987.68 0.069
   27.9799  181.5649  -8.450   21.9293  108.7458  -8.450      408.08 0.119
   80.5102  185.4051  -8.899   74.8953  109.3889  -8.898      527.66 0.089
  927.6192  236.3663  -9.847  927.1072  108.8785  -9.839     1313.42 0.049
  745.8885  226.8886  -7.067  744.6236  110.4223  -7.061       80.18 0.236
   61.0512  186.0126  -8.675   55.2612  111.1773  -8.675      412.69 0.079
  200.2960  193.7743  -8.498  195.6383  110.4661  -8.496      306.23 0.085
  576.5795  216.9339  -6.361  574.4127  110.7252  -6.357       49.20 0.345
   98.7607  190.5336  -7.246   93.2735  113.3985  -7.245      110.52 0.221
  591.5681  220.2899  -7.570  589.4732  113.1618  -7.565      138.38 0.201
  553.4110  218.8716 -10.179  551.0988  114.0602 -10.174     1856.50 0.040
  570.1356  219.8178  -6.814  567.9182  113.9899  -6.809       99.91 0.379
  601.2726  221.2351  -8.021  599.2290  113.5159  -8.016      225.68 0.116
  709.4487  228.5921  -7.058  707.9980  114.3227  -7.052       90.53 0.289
  145.0798  194.6663  -7.222  139.9627  114.7089  -7.221      127.00 0.202
  898.1791  241.5458 -12.681  897.5313  115.8171 -12.673    15936.23 0.023
   54.9307  191.6756  -9.451   49.0511  117.2014  -9.451      942.83 0.045
  651.5491  227.8627  -7.485  649.7562  117.0751  -7.479      145.49 0.234
  869.9516  241.0620  -8.809  869.1868  117.0429  -8.801      509.49 0.084
  354.9417  210.5173 -10.094  351.3788  117.7755 -10.091     1589.29 0.049
  545.3857  223.0360  -6.599  543.0062  118.6975  -6.594       75.68 0.250
  921.0498  246.0808  -6.057  920.4795  118.9501  -6.049       42.76 0.475
   23.2508  193.7965  -6.017   17.0791  121.2406  -6.017       47.40 0.497
  152.8064  201.9486  -6.044  147.7114  121.5059  -6.043       45.01 0.380
  247.3202  207.3332 -10.332  242.9634  121.1358 -10.331     2121.35 0.046
  411.9729  217.4062  -8.545  408.7744  121.1833  -8.542      376.80 0.116
  753.1827  238.1895  -6.594  751.9092  121.2408  -6.588       75.61 0.301
  940.9299  248.9403  -7.959  940.4283  120.5954  -7.951      188.60 0.113
  800.3100  242.2126  -6.039  799.2408  122.3990  -6.032       52.74 0.453
  462.3473  222.1374  -6.447  459.4576  122.8418  -6.444       58.98 0.423
  702.0446  236.6852 -11.547  700.5240  122.8352 -11.542     5609.41 0.026
  730.4384  238.5480  -9.351  729.0529  122.9736  -9.345      883.37 0.058
  116.7301  202.6447  -6.241  111.3251  124.3930  -6.240       49.06 0.377
  273.7188  211.6064  -6.436  269.5450  123.7949  -6.434       69.00 0.486
  364.1559  217.4315 -12.299  360.6231  124.1121 -12.296    12098.11 0.020
  379.1590  218.0634  -7.010  375.7293  123.8312  -7.007      102.46 0.250
  739.0514  240.4169  -5.940  737.7008  124.3149  -5.934       42.62 0.474
  254.0641  211.9634  -8.865  249.7350  125.3452  -8.863      524.71 0.087
  866.4626  249.7909 -10.728  865.6528  125.9479 -10.720     2915.04 0.029
  188.4428  209.6980  -6.518  183.5978  127.0726  -6.517       58.17 0.349
  821.9674  247.8791  -7.175  820.9742  126.7342  -7.168      119.83 0.232
   47.7627  201.6337  -6.792   41.7570  127.5772  -6.792       91.02 0.442
  391.4067  222.7043 -10.455  388.0392  127.7159 -10.452     2290.03 0.045
  424.0250  226.3121  -9.986  420.8636  129.3329  -9.983     1481.42 0.051
  662.7949  240.9970  -6.488  661.0080  129.4833  -6.482       60.14 0.467
   26.6611  203.2091  -7.393   20.4610  130.4285  -7.394      116.04 0.160
  562.0795  235.0607  -9.131  559.7458  129.6716  -9.127      629.56 0.063
  802.9389  249.9465  -7.353  801.8530  129.9447  -7.346      161.93 0.171
  199.4551  214.2730  -6.913  194.6740  130.9679  -6.912       90.14 0.368
  604.1479  239.1687  -6.496  602.0424  131.2159  -6.491       79.36 0.347
  702.5487  244.6687 -11.778  700.9986  130.7605 -11.772     7910.22 0.030
  435.7595  229.2685 -10.185  432.6614  131.5680 -10.182     1549.56 0.028
  520.1476  234.7992  -7.081  517.5603  131.9547  -7.077      105.51 0.245
  495.6010  234.3859  -9.128  492.8635  133.0341  -9.124      725.45 0.033
  642.7191  244.7984  -6.601  640.8067  134.4889  -6.595       74.22 0.349
  823.9765  255.4197  -9.387  822.9649  134.1246  -9.380      903.37 0.071
 1001.3089  266.5118  -8.068 1000.9748  134.4397  -8.060      236.21 0.094
   56.0873  209.7726  -8.869   50.1060  135.1952  -8.870      523.71 0.085
  320.0928  225.9830 -10.771  316.1949  135.3185 -10.768     2967.42 0.038
  591.6209  242.4047  -6.349  589.4288  135.2009  -6.345       44.51 0.463
  296.8985  226.4122  -9.931  292.8235  137.1563  -9.929     1509.16 0.032
  442.1319  235.0575  -6.750  439.0472  136.9537  -6.746       93.30 0.319
  570.8711  242.5422  -7.337  568.5562  136.5962  -7.333      124.90 0.211
   32.5738  211.3491  -7.701   26.3697  138.1999  -7.701      165.56 0.198
  134.2758  216.9380  -6.639  128.9360  137.5904  -6.638       76.77 0.362
  225.3813  223.2118  -7.774  220.7610  138.3104  -7.773      184.99 0.143
  517.5358  241.1402  -8.714  514.9028  138.4351  -8.710      460.44 0.072
  980.8496  268.7296 -12.958  980.4351  137.8881 -12.950    20998.75 0.052
  388.4570  234.6528  -7.468  385.0081  139.8122  -7.465      177.76 0.193
  486.4971  240.3781 -10.055  483.6737  139.5620 -10.051     1385.19 0.038
  899.2743  266.4710  -7.653  898.5465  140.5762  -7.645      144.32 0.163
  943.0552  268.6984  -8.172  942.4971  140.1446  -8.164      260.93 0.100
  962.8476  269.3984  -7.110  962.3635  139.6437  -7.102       93.41 0.252
 1005.1492  273.0313  -7.495 1004.8083  140.6993  -7.487      160.56 0.149
  468.1599  241.8548  -6.874  465.2120  142.1494  -6.870       95.19 0.257
  846.9654  265.0924  -6.959  846.0196  142.3695  -6.952       95.49 0.242
  860.2593  265.8648  -6.600  859.3677  142.3344  -6.592       68.99 0.431
  893.7125  267.9617  -8.256  892.9564  142.3978  -8.249      274.13 0.137
  291.5069  233.2681  -9.297  287.3537  144.3235  -9.295      715.32 0.051
  423.7242  241.1503  -8.769  420.4867  144.1496  -8.766      447.40 0.083
  618.7460  252.6798  -7.990  616.6655  143.7982  -7.985      212.71 0.146
  808.4089  264.0724  -7.424  807.2960  143.6872  -7.417      122.37 0.251
   36.2145  218.1151  -8.828   30.0012  144.7331  -8.828      497.74 0.084
  406.1398  240.8585  -6.692  402.7829  144.9273  -6.689       94.64 0.302
  701.6034  259.2607  -7.334  699.9898  145.3602  -7.329      126.80 0.256
  592.8893  253.3390  -7.249  590.6564  146.0235  -7.245      123.71 0.190
  730.5158  261.3579 -11.775  729.0412  145.6990 -11.769     7942.25 0.021
  545.2965  251.2691  -6.593  542.7874  146.8471  -6.589       68.13 0.243
  149.8422  229.0154  -6.197  144.5638  148.6964  -6.196       52.75 0.474
  779.6356  267.3947  -7.850  778.3770  148.7398  -7.844      192.79 0.117
  336.3704  241.8459  -6.334  332.5094  150.1534  -6.332       61.40 0.403
  568.9654  255.5687  -8.702  566.5806  149.6976  -8.697      421.96 0.087
  663.0474  262.3442  -8.308  661.1733  150.7446  -8.303      324.47 0.089
  838.5225  272.9766  -9.163  837.5120  150.7351  -9.156      584.15 0.058
  275.9986  239.9228  -8.680  271.6890  151.9057  -8.678      432.83 0.078
  134.2741  233.7279  -6.268  128.8350  154.3474  -6.267       53.64 0.442
  378.5277  247.8772  -8.228  374.9410  153.6066  -8.225      265.16 0.082
   15.8316  226.6502  -8.380    9.3815  154.4863  -8.381      266.03 0.144
  939.7470  283.5604  -6.223  939.1270  155.1479  -6.215       44.66 0.459
   28.6690  229.7704  -6.914   22.3189  156.8206  -6.914       99.76 0.283
  272.1479  244.5094  -6.571  267.7831  156.7161  -6.569       58.47 0.442
  632.5871  267.3527  -7.417  630.5224  157.5848  -7.412      129.08 0.219
  829.7010  279.7184  -9.582  828.6273  157.9864  -9.575      994.47 0.050
  958.4040  287.9989 -12.179  957.8427  158.4392 -12.172    10371.62 0.020
  690.3264  272.4435  -7.191  688.5581  159.1564  -7.186      110.98 0.242
  266.3334  247.1698  -8.103  261.9083  159.7242  -8.101      258.52 0.136
  704.8551  274.8420  -8.079  703.1959  160.6929  -8.074      240.14 0.122
  166.2849  242.9019  -9.015  161.0647  161.5540  -9.015      584.35 0.093
  188.0788  244.8749  -8.530  183.0296  162.1956  -8.529      415.96 0.075
  158.4411  243.6939  -7.199  153.1499  162.8222  -7.199      119.80 0.209
  336.1306  254.5473  -8.557  332.2015  162.8392  -8.555      379.66 0.098
  383.6630  257.3260  -8.320  380.0645  162.7199  -8.317      317.62 0.122
   46.7515  238.2828  -8.183   40.5086  164.2267  -8.183      264.22 0.099
  949.6179  293.3941  -7.741  949.0047  164.3454  -7.733      183.44 0.267
  983.9197  295.8966  -6.661  983.4301  164.7598  -6.653       78.95 0.428
  368.0716  259.9546  -8.472  364.3478  166.2906  -8.470      348.60 0.062
  740.4481  282.3459  -8.943  738.9413  166.0140  -8.938      637.43 0.086
  820.1300  289.3762  -6.591  818.9783  168.1892  -6.584       64.66 0.392
   85.2276  245.7050  -6.754   79.2868  169.2913  -6.755       80.10 0.277
   91.7715  245.5167  -6.582   85.8902  168.7044  -6.583       70.23 0.317
  124.1363  247.6779  -9.242  118.5268  168.8891  -9.242      699.05 0.051
  770.9823  286.8309 -10.653  769.6089  168.6325 -10.647     2469.84 0.037
  975.4047  299.3941  -7.443  974.8719  168.7600  -7.435      148.16 0.179
  998.4310  301.5120  -6.412  997.9772  169.4719  -6.404       62.40 0.375
  259.7084  258.2775  -7.117  255.1700  171.2108  -7.115       97.93 0.318
  887.6571  296.2028  -6.636  886.7789  170.8980  -6.629       67.71 0.453
  935.1118  298.7839  -6.833  934.4231  170.5934  -6.825       74.94 0.387
  267.7971  259.7415 -10.905  263.3151  172.1796 -10.903     3281.88 0.038
  423.8795  268.9076  -9.322  420.5045  171.8265  -9.319      708.91 0.092
  591.3123  281.3916 -12.634  588.9467  174.0865 -12.629    17888.28 0.022
  295.7557  263.9551  -9.353  291.4710  174.6830  -9.351      685.25 0.189
  867.4156  299.2585 -10.248  866.4382  175.1697 -10.241     1746.14 0.035
  211.4227  259.9789 -10.674  206.4817  175.8490 -10.674     2610.36 0.035
  283.1951  265.5443 -11.470  278.8034  177.0337 -11.469     6165.16 0.026
  944.5967  305.7460  -7.978  943.9232  176.9541  -7.970      255.70 0.185
  169.3950  259.9639  -6.634  164.1025  178.3955  -6.634       74.02 0.321
  311.6742  269.6967  -9.673  307.4818  179.4438  -9.671      873.37 0.051
  498.7623  280.9420  -9.173  495.8245  179.2667  -9.169      692.53 0.078
  791.6139  298.8031  -9.776  790.2947  179.3132  -9.770     1111.77 0.085
  807.0163  299.4399  -6.580  805.7673  179.0135  -6.574       73.55 0.355
  137.0333  259.8619  -8.858  131.4641  180.2672  -8.858      459.17 0.101
 1015.9335  313.4893  -9.609 1015.5060  180.3382  -9.601      823.83 0.094
  242.6499  267.3311  -9.005  237.9241  181.2863  -9.004      586.09 0.066
  351.7373  273.3959  -6.581  347.8251  180.6956  -6.579       68.43 0.317
  416.8079  277.4537  -7.867  413.3420  180.7827  -7.865      204.77 0.160
  976.1258  312.0131  -8.665  975.5557  181.2856  -8.658      408.52 0.086
  943.1309  310.8403  -7.707  942.4349  182.1179  -7.700      174.26 0.168
  286.8822  272.0439  -8.609  282.4843  183.2961  -8.608      362.62 0.095
  102.7873  262.8894  -6.605   96.8999  185.3790  -6.605       81.63 0.427
  132.6072  263.9542  -8.293  126.9756  184.6233  -8.293      303.37 0.123
  515.2236  287.1518  -9.449  512.3614  184.4574  -9.446      994.33 0.498
  746.6655  302.1213  -6.324  745.1138  185.3479  -6.318       57.35 0.381
 1018.1247  318.3163  -9.219 1017.6904  185.0127  -9.211      718.71 0.138
  676.4764  298.6682  -8.622  674.5271  186.1412  -8.618      369.96 0.086
  991.3979  317.3957  -6.523  990.8687  185.7197  -6.516       54.77 0.286
  628.8859  297.2513  -6.314  626.6732  187.6196  -6.310       47.51 0.351
  267.3006  276.9247 -10.821  262.7209  189.3605 -10.820     2927.73 0.028
  137.2723  269.1092  -7.404  131.6510  189.4860  -7.404      108.92 0.357
  300.3817  279.8780  -9.045  296.0476  190.2925  -9.043      625.19 0.081
  610.0639  298.2975 -10.010  607.7364  189.8067 -10.006     1505.45 0.047
  945.1581  319.9099  -8.113  944.4406  191.0304  -8.106      251.89 0.121
  293.7537  281.2605 -11.169  289.3601  192.0762 -11.168     3264.35 0.274
  583.7861  298.5367  -7.396  581.2999  191.6424  -7.392      110.84 0.253
  802.1055  312.5693  -7.470  800.7850  192.3972  -7.464      144.44 0.159
   87.3238  269.6507  -9.940   81.2577  193.0743  -9.941     1472.59 0.045
  323.0053  283.6062  -9.252  318.8251  192.6347  -9.250      711.80 0.052
  340.3946  284.5023  -7.294  336.3406  192.4694  -7.292      113.11 0.187
  692.0762  306.9321  -7.846  690.1793  193.4334  -7.842      182.26 0.105
  198.3608  277.3532  -8.940  193.2127  193.9906  -8.939      618.45 0.071
  904.0455  320.8011  -7.574  903.1535  194.4134  -7.567      138.55 0.169
  121.7187  273.5975  -6.785  115.9351  194.9167  -6.785       85.44 0.311
  793.1900  315.0890 -10.059  791.8177  195.4499 -10.053     1464.99 0.034
  173.2670  279.1289  -6.241  167.8972  197.2945  -6.241       49.91 0.409
  468.1041  296.9303  -8.734  464.8905  197.0852  -8.731      534.41 0.098
  105.5722  276.1307  -9.943   99.6307  198.4317  -9.943     1216.87 0.152
  775.7668  316.4878  -9.280  774.3049  197.9020  -9.274      712.75 0.077
  492.6121  300.7786  -9.132  489.5410  199.4294  -9.129      544.52 0.061
  959.7568  329.9198  -9.331  959.0656  200.1168  -9.323      804.75 0.116
   67.8798  276.7211  -9.977   61.5948  201.3221  -9.978     1335.18 0.042
  591.7836  308.4048  -7.796  589.3026  200.9983  -7.792      215.09 0.216
  706.2331  315.9014  -6.310  704.4186  201.5407  -6.305       45.25 0.405
  863.4001  324.7154  -6.177  862.3154  200.7821  -6.170       54.11 0.462
  474.8262  303.2381  -6.901  471.6270  202.9680  -6.898      110.43 0.405
  720.8303  318.6698  -6.864  719.0819  203.4140  -6.859       74.51 0.379
  927.1770  330.6588  -7.559  926.3501  202.8313  -7.551      149.59 0.180
  411.2791  300.2427  -8.070  407.6615  203.8562  -8.067      259.96 0.111
  301.4142  294.2284  -8.431  297.0112  204.5526  -8.429      371.90 0.127
  539.1282  309.1401  -7.590  536.3155  204.9343  -7.586      188.92 0.185
  356.5568  299.5536  -6.711  352.5450  206.5047  -6.710       69.33 0.258
  947.1296  334.7623  -6.594  946.3717  205.7081  -6.587       70.15 0.263
   45.5874  282.0332 -11.329   39.0647  207.9888 -11.331     5433.28 0.034
   58.6948  282.4085  -8.719   52.2910  207.5632  -8.720      422.91 0.067
  127.7194  287.0635  -8.391  121.9093  207.9976  -8.392      355.78 0.127
  220.0320  293.0621  -6.302  214.9769  208.3529  -6.302       47.88 0.442
  238.0373  294.0286  -7.055  233.1259  208.2192  -7.054       99.98 0.208
  490.8255  309.9837  -7.913  487.6993  208.7217  -7.910      227.70 0.130
  691.7456  322.4225  -6.643  689.7854  208.8994  -6.639       72.09 0.315
  404.5602  306.2485  -6.011  400.8648  210.2585  -6.008       37.74 0.498
  461.3205  309.3223  -7.329  458.0022  209.8623  -7.326      158.03 0.250
  922.6265  337.2280  -8.486  921.7585  209.6535  -8.479      360.02 0.136
  977.2330  340.7859 -11.742  976.5763  209.8810 -11.735     7136.99 0.025
  996.6729  341.9778  -7.985  996.0869  209.8863  -7.978      234.45 0.134
  769.4242  329.2271  -6.885  767.8830  210.9867  -6.880      104.97 0.332
  152.6455  292.5953  -7.502  147.0209  212.0001  -7.502      167.08 0.180
  651.7235  323.3971  -8.298  649.5335  212.3053  -8.294      274.66 0.114
  355.4130  305.9150  -6.140  351.3599  212.9231  -6.138       39.45 0.351
  533.0643  316.5585  -9.306  530.1784  212.7037  -9.303      784.27 0.072
  847.8420  335.4423  -6.747  846.6498  212.4180  -6.740       67.60 0.452
  245.1309  300.6892  -8.986  240.2410  214.4361  -8.985      516.90 0.081
  627.1043  323.5065  -7.939  624.7701  213.9120  -7.935      218.09 0.129
  790.3750  333.5601  -7.498  788.9205  214.0332  -7.492      142.77 0.190
  197.5861  298.1875 -10.296  192.3133  214.8408 -10.295     1941.79 0.026
  277.1170  302.7676 -10.619  272.4752  214.5587 -10.618     2035.10 0.046
  565.0017  320.8899 -10.082  562.2998  215.0810 -10.078     1604.02 0.042
  713.1397  329.5491 -11.815  711.3082  214.7283 -11.811     7672.71 0.021
  894.1148  340.9801  -9.037  893.1105  215.1253  -9.031      677.66 0.077
   19.2634  289.0626  -6.419   12.4516  216.6056  -6.420       54.28 0.475
   51.0663  291.7521  -8.663   44.5349  217.3614  -8.664      335.62 0.104
  719.8910  333.4072  -9.136  718.0801  218.1647  -9.131      722.00 0.089
  755.2476  335.4909  -7.843  753.6115  218.0929  -7.838      197.58 0.175
   24.1862  291.4180  -6.580   17.4065  218.6581  -6.582       56.25 0.374
  202.8315  303.2217 -11.050  197.5748  219.5474 -11.050     3208.03 0.028
  128.2578  300.4079  -6.719  122.3739  221.2916  -6.719       65.10 0.366
  336.2943  312.9345  -8.220  332.0607  221.0956  -8.218      281.82 0.118
  434.8380  319.0333  -8.873  431.2925  221.1681  -8.870      538.52 0.067
   75.2076  298.0291  -6.213   68.8606  222.1563  -6.214       47.36 0.449
  771.9333  341.5958  -9.909  770.3579  223.1651  -9.904     1259.91 0.062
  140.0190  304.1221  -7.182  134.2170  224.2827  -7.182      120.69 0.237
  188.1836  306.2130  -7.244  182.7858  223.4291  -7.244      115.30 0.231
  418.1982  321.0546  -8.553  414.5269  224.2010  -8.551      270.95 0.328
  551.3395  329.0860  -7.957  548.5139  224.0889  -7.954      205.21 0.142
  816.2326  347.0013  -6.310  814.8525  225.8609  -6.304       45.47 0.495
  848.8215  348.1300  -5.885  847.5884  225.0051  -5.879       32.19 0.485
  652.7168  336.7231  -8.225  650.4775  225.5354  -8.221      228.14 0.140
  752.3727  343.5659  -6.861  750.6912  226.3187  -6.856       77.35 0.394
  977.5729  357.3213  -7.411  976.8652  226.3345  -7.404      149.46 0.211
  463.9127  327.2393  -6.202  460.5257  227.5810  -6.200       44.51 0.465
  520.0143  329.8113  -7.648  516.9841  226.7219  -7.645      185.00 0.165
  578.7264  333.4982  -7.162  576.0544  226.8230  -7.159      118.73 0.222
  182.1101  311.8083  -8.966  176.6286  229.3877  -8.966      516.31 0.081
  380.8037  323.7809  -7.912  376.8475  229.2041  -7.910      214.02 0.129
  174.2686  311.4831  -8.594  168.7217  229.5420  -8.594      379.95 0.087
  990.5902  361.4679  -6.020  989.9203  229.6738  -6.012       38.75 0.391
 1016.2301  363.8934  -9.026 1015.6497  230.5299  -9.018      507.34 0.087
   25.2519  306.9705  -8.427   18.3849  234.1289  -8.429      342.52 0.077
  403.7434  330.0067  -6.580  399.9236  234.0169  -6.578       69.08 0.242
  777.3890  353.2408  -8.294  775.7970  234.4435  -8.289      282.36 0.098
   89.4084  311.9488  -7.909   83.1072  235.1922  -7.910      225.83 0.160
  121.0286  313.7495  -8.891  115.0020  235.0584  -8.892      569.14 0.068
  569.0646  342.0623  -8.231  566.2937  235.9551  -8.227      310.74 0.107
   32.1304  310.9418  -7.573   25.3037  237.6875  -7.575      176.47 0.203
  155.2306  318.7883  -6.592  149.4765  238.0011  -6.592       68.94 0.479
  275.4500  326.7907  -7.626  270.6642  238.6441  -7.625      146.44 0.195
  329.5801  329.6158  -8.013  325.2076  238.1564  -8.012      231.26 0.113
  677.8987  350.9989  -8.794  675.7463  238.2408  -8.790      477.02 0.076
  341.2818  331.9031  -7.108  336.9871  239.7248  -7.107       92.23 0.344
  576.7264  345.2139  -8.368  573.9899  238.6325  -8.364      348.54 0.122
  694.3113  352.9821  -6.151  692.2441  239.2194  -6.147       46.42 0.382
  961.9255  370.3936  -8.323  961.1130  240.3121  -8.316      318.11 0.088
  528.6190  345.0683 -11.100  525.5732  241.4192 -11.097     3476.85 0.054
  659.7294  352.4157  -6.818  657.4664  240.7605  -6.814       79.64 0.289
  770.1860  358.9610 -11.329  768.5364  240.5850 -11.324     4149.03 0.024
  874.6534  366.1795  -9.305  873.4737  241.4260  -9.299      639.62 0.060
  992.9751  372.7486  -9.961  992.2792  240.7684  -9.954     1286.44 0.120
   63.1831  317.0881  -7.963   56.6097  241.9290  -7.965      220.73 0.165
  248.4674  329.9042  -7.056  243.4437  243.4025  -7.055       78.23 0.234
  314.9921  333.2846  -5.966  310.4870  242.7104  -5.965       35.67 0.499
  384.2348  337.3453  -8.282  380.2352  242.5326  -8.280      281.77 0.100
  703.7099  356.9951  -6.887  701.7198  242.6702  -6.882       94.04 0.283
   55.5012  319.4225  -7.178   48.8421  244.7307  -7.180       94.11 0.268
  737.5834  362.9266  -6.176  735.7510  246.5234  -6.171       49.33 0.458
   19.4622  319.1891  -9.197   12.4629  246.6893  -9.199      602.18 0.063
  115.7388  324.9327  -6.432  109.5986  246.5521  -6.433       47.99 0.443
  155.6179  327.6534  -8.981  149.8158  246.8319  -8.981      584.28 0.086
  662.9692  358.7204  -6.884  660.6993  246.8519  -6.880       95.79 0.261
  775.9117  365.6117  -9.802  774.2659  246.8680  -9.797     1204.93 0.072
  677.2569  360.3815  -6.814  675.0631  247.6383  -6.810       81.51 0.283
  362.3079  341.9744 -10.022  358.1208  248.4931 -10.021     1444.29 0.049
  637.7618  360.1988  -8.109  635.3365  249.8626  -8.105      261.60 0.115
  686.8678  364.4753  -8.402  684.7127  251.1361  -8.398      330.21 0.113
  179.9864  334.1529  -8.451  174.3589  251.8340  -8.452      322.11 0.110
  254.6956  338.9888  -7.072  249.6734  252.0931  -7.072      111.19 0.235
  599.0169  360.4139 -12.148  596.3536  252.4386 -12.145     9142.68 0.019
  876.2085  376.5971  -7.595  874.9995  251.7160  -7.588      155.78 0.132
  699.1980  367.0538  -7.448  697.1027  252.9567  -7.444      161.39 0.173
  900.1536  380.1490  -6.399  899.0422  253.7973  -6.393       51.27 0.493
  990.4277  385.1235  -7.167  989.6833  253.2544  -7.160      134.89 0.353
   59.7536  329.4413 -11.111   53.0731  254.4796 -11.113     3848.24 0.037
  565.3111  359.9331  -6.412  562.4363  254.0137  -6.409       49.99 0.427
  919.9244  382.1458  -7.758  918.8945  254.5826  -7.751      184.25 0.123
  734.3674  373.2374  -6.573  732.4783  257.0016  -6.568       61.59 0.397
  782.1669  376.2595  -6.840  780.5126  257.1044  -6.835       93.18 0.338
  487.9624  360.0133  -6.348  484.5806  258.8165  -6.346       45.12 0.412
  199.9301  344.0822  -8.467  194.4176  260.5320  -8.468      311.24 0.064
  289.8730  351.1187  -8.059  285.0723  262.0526  -8.059      256.70 0.125
  940.0852  390.4532  -6.497  939.1157  261.6339  -6.491       60.89 0.471
  236.1456  349.4369  -7.830  230.9111  263.6625  -7.830      190.59 0.213
  343.7404  355.6682  -6.547  339.3407  263.2988  -6.546       56.74 0.305
  505.6209  365.3591  -8.694  502.3312  263.0720  -8.691      407.88 0.110
  138.8426  344.0945  -7.991  132.7966  264.2804  -7.992      240.79 0.133
  147.7097  344.1369  -9.254  141.7423  263.7805  -9.255      729.50 0.056
  190.7764  347.1865  -9.732  185.1677  264.1927  -9.733      964.55 0.197
  552.9456  369.2207  -9.394  549.9485  264.0352  -9.391      876.88 0.070
  932.4401  393.2364  -9.784  931.4282  264.8741  -9.778     1168.51 0.032
  358.5516  359.5517  -8.627  354.2456  266.2696  -8.626      441.96 0.084
  521.3637  369.1320  -8.668  518.1596  265.8748  -8.665      463.98 0.076
  797.2684  386.2443  -8.322  795.6522  266.1412  -8.317      297.69 0.104
  971.4324  397.0343 -10.625  970.5741  266.2817 -10.618     2466.58 0.025
  416.3273  363.9897  -7.609  412.4305  267.1651  -7.608      158.60 0.183
  649.1532  379.2635  -8.559  646.7169  268.1871  -8.555      408.00 0.068
  739.0252  384.6580  -6.694  737.1166  268.1076  -6.689       74.40 0.300
  986.6319  399.2469  -8.076  985.8285  267.5600  -8.069      235.36 0.148
   26.0944  342.2783  -8.036   19.0142  269.3528  -8.038      243.01 0.117
  157.2317  351.4123  -6.086  151.3063  270.4657  -6.087       42.38 0.453
  692.6787  384.6011  -6.401  690.4768  270.8573  -6.397       47.74 0.401
  858.9061  394.9242  -6.138  857.5527  271.0417  -6.132       49.86 0.484
   51.1042  346.0840  -7.377   44.2408  271.6366  -7.379      130.26 0.167
   61.2632  347.0222  -8.316   54.4898  271.9522  -8.318      282.65 0.105
  535.3093  376.5945  -7.286  532.1617  272.4697  -7.283      109.28 0.268
  813.6775  393.2958  -9.649  812.1158  272.1731  -9.644     1076.82 0.074
  901.7551  399.4870  -7.056  900.5851  272.9768  -7.050      102.87 0.256
   89.9670  351.1310  -6.585   83.4360  274.3007  -6.586       63.26 0.425
  717.3046  389.4153  -7.595  715.2610  274.1761  -7.591      166.14 0.172
   80.5278  351.4632  -8.065   73.9074  275.2103  -8.066      224.37 0.133
  299.8312  365.0700  -6.514  295.0359  275.3738  -6.514       57.70 0.456
  266.1917  363.9777  -8.477  261.1276  276.3440  -8.477      346.73 0.104
  687.4154  389.3608  -7.820  685.1641  275.9265  -7.816      218.98 0.116
  344.8295  369.1673 -10.083  340.3680  276.7094 -10.082     1421.57 0.047
  154.2211  359.0970  -6.419  148.2245  278.3269  -6.419       47.62 0.419
  770.8016  396.3943  -8.408  769.0140  277.8759  -8.403      353.33 0.173
  792.6063  398.2965  -7.126  790.9221  278.4439  -7.122       97.35 0.205
  395.2273  375.7245  -7.738  391.1161  280.1703  -7.737      187.89 0.165
  100.0650  358.6694 -10.573   93.5820  281.2143 -10.575     2397.64 0.034
   38.2119  355.3255  -7.724   31.1694  281.6599  -7.726      158.27 0.184
  922.3306  409.9908  -8.400  921.2184  282.1921  -8.394      333.08 0.100
  876.2725  407.8724  -6.768  874.9547  282.8928  -6.763       77.18 0.342
  227.8960  370.5363  -8.683  222.4745  285.2419  -8.683      385.65 0.081
  483.8961  386.2546 -10.183  480.3624  285.2552 -10.181     1633.10 0.037
  568.0611  391.7628  -8.218  565.0618  285.6076  -8.215      290.32 0.133
  103.3583  364.7104 -10.425   96.8695  287.0485 -10.427     2058.92 0.122
  111.2313  364.8896  -7.435  104.8136  286.7455  -7.437      139.24 0.178
  217.4361  371.5983  -6.381  211.9192  286.9441  -6.381       52.13 0.454
  371.5579  380.5838  -6.666  367.2433  286.4710  -6.665       66.77 0.330
  840.4914  410.0006  -7.637  838.9983  287.1967  -7.632      169.11 0.218
  156.3664  368.4695  -6.215  150.3347  287.5589  -6.216       50.85 0.479
  462.9771  387.6120  -7.785  459.2935  287.8902  -7.783      206.39 0.195
  977.1006  419.1437  -7.856  976.1957  287.9719  -7.849      207.78 0.138
 1005.0669  421.1393  -8.017 1004.2681  288.2546  -8.010      210.75 0.102
  171.0760  370.9106  -7.588  165.1604  289.0971  -7.588      171.93 0.135
  491.0612  390.2238 -10.666  487.5574  288.7788 -10.664     2494.92 0.024
  246.3294  376.3030  -6.444  241.0322  289.8714  -6.445       61.77 0.324
  636.8337  400.0854  -6.477  634.2356  289.7127  -6.474       58.49 0.484
  928.9988  417.8351  -9.032  927.8903  289.6051  -9.026      551.89 0.084
  286.0244  381.2010 -10.255  281.0302  292.3289 -10.254     1814.67 0.030
  531.9432  397.5848 -10.652  528.6774  293.6244 -10.649     2045.82 0.156
  642.1846  403.6642  -6.834  639.6044  292.9566  -6.831       85.88 0.261
  782.6939  411.9759  -8.219  780.9081  292.6911  -8.214      294.93 0.111
  861.5017  418.3980  -7.190  860.0780  294.2893  -7.184      103.99 0.231
  833.6580  418.4181 -11.729  832.1021  296.0074 -11.724     7811.58 0.026
  795.7633  417.0426  -7.949  794.0249  296.9473  -7.944      226.21 0.149
  904.2592  424.1757  -6.253  903.0171  297.4383  -6.247       44.55 0.424
  173.7469  379.9097  -7.291  167.8035  297.9237  -7.292      134.10 0.199
  424.4959  395.3664  -7.525  420.5026  297.9869  -7.524      143.68 0.117
  310.6580  389.0132  -7.002  305.8223  298.6202  -7.002       87.22 0.275
  324.9881  390.4332 -10.069  320.2592  299.1597 -10.068     1628.38 0.040
  394.8265  394.2104  -7.890  390.6186  298.6507  -7.889      194.75 0.136
  744.6278  418.1057  -6.458  742.6183  301.1282  -6.454       64.53 0.406
  825.4522  422.9684  -7.674  823.8400  301.0459  -7.669      139.51 0.310
  442.7984  400.6689  -7.284  438.9097  302.1600  -7.283      110.70 0.405
  526.3637  405.8058  -9.947  523.0239  302.1717  -9.944     1462.32 0.038
  334.3529  395.1126  -7.367  329.6736  303.2586  -7.366      130.60 0.221
  558.4824  408.8239  -9.473  555.3444  303.2198  -9.471      857.11 0.042
   76.3575  379.7548  -6.878   69.5277  303.7352  -6.879       69.90 0.296
  283.7996  392.8434  -6.595  278.7245  304.0931  -6.594       70.93 0.353
  737.2529  420.6106  -7.194  735.1935  304.0771  -7.190      133.08 0.324
   21.7716  377.6442  -6.767   14.4323  304.9624  -6.769       81.83 0.358
  672.0002  417.8038  -9.486  669.5423  305.2420  -9.483      837.11 0.054
  773.1630  425.4513  -6.413  771.2764  306.7137  -6.409       55.88 0.473
  276.9179  395.3769  -9.791  271.7723  307.0458  -9.791     1321.50 0.045
  850.6970  430.1094  -8.085  849.1815  306.6270  -8.080      245.28 0.106
  956.0454  437.0788 -10.492  954.9927  307.1381 -10.486     2430.11 0.070
  179.8798  390.5959  -8.861  173.9298  308.2241  -8.862      481.32 0.175
  188.6774  391.4981  -7.526  182.7997  308.5864  -7.527      138.40 0.175
  437.3288  406.4234  -8.881  433.3727  308.2400  -8.880      500.79 0.062
  520.7968  410.8641  -7.960  517.3970  307.5617  -7.957      201.95 0.160
  761.0385  426.4209 -10.379  759.0841  308.4212 -10.375     1899.82 0.046
  590.1940  416.8797  -7.377  587.2290  309.3208  -7.374      107.32 0.190
  255.8405  396.9263  -9.459  250.5104  309.8871  -9.459      794.91 0.053
  507.2038  412.0891  -7.374  503.7072  309.6169  -7.372      124.48 0.231
  818.3661  431.1357  -9.788  816.6891  309.6240  -9.783     1070.80 0.051
  831.0722  431.7786  -9.037  829.4557  309.4895  -9.032      503.78 0.051
   36.2562  384.0607  -6.629   29.0178  310.4967  -6.631       61.25 0.350
  866.1996  435.0972  -7.157  864.7401  310.6550  -7.152      103.18 0.144
  150.1591  392.8457 -13.368  143.9314  312.2931 -13.369    33168.23 0.025
  195.5401  396.3906  -8.632  189.6949  313.0539  -8.633      425.47 0.072
  373.5343  409.8246  -9.742  369.0843  315.5473  -9.741     1226.88 0.355
  531.5150  420.8360  -8.580  528.1413  316.8597  -8.578      432.39 0.101
   25.5269  390.4898  -7.474   18.1468  317.5729  -7.476      146.46 0.204
  624.5788  427.5553  -8.868  621.7882  317.8714  -8.865      540.64 0.064
  351.5174  412.1326  -7.198  346.8842  319.2030  -7.197      118.29 0.210
  421.1248  416.7501  -8.110  417.0000  319.5435  -8.109      241.75 0.163
  893.3158  446.1566 -10.649  891.9483  320.0255 -10.644     2890.50 0.049
  926.8732  448.2595  -9.305  925.6542  320.0698  -9.299      767.81 0.063
  271.1865  408.9854  -6.465  265.9196  320.9907  -6.466       48.85 0.485
  761.6559  438.4373  -6.560  759.6580  320.3709  -6.556       61.22 0.384
   40.2367  396.4610 -10.148   32.9604  322.6466 -10.151     1644.63 0.044
  440.6502  421.8507 -11.018  436.6418  323.4397 -11.017     3268.61 0.029
  454.3856  422.5005  -9.515  450.4726  323.2468  -9.514      845.08 0.051
  725.0364  438.5692 -10.089  722.8374  322.7403 -10.085     1617.81 0.045
  231.5801  409.4047  -7.897  225.9753  323.8422  -7.898      226.26 0.157
  754.0704  441.3492  -9.375  752.0202  323.7394  -9.371      856.52 0.062
  525.1516  429.7895 -10.442  521.6948  326.1877 -10.440     2178.18 0.026
  588.8100  432.8861  -6.266  585.7664  325.3806  -6.263       44.38 0.407
  649.1639  437.1941  -6.428  646.4865  325.9855  -6.425       58.42 0.361
   23.0822  399.9301  -8.568   15.6211  327.1603  -8.571      381.15 0.096
  544.1270  433.4286  -7.622  540.7825  328.6583  -7.620      164.17 0.142
  864.8412  453.0741  -6.439  863.3133  328.6661  -6.434       53.10 0.319
  808.3419  451.2504  -8.420  806.5404  330.2998  -8.415      290.57 0.104
   27.3533  403.5045  -6.674   19.9126  330.4716  -6.677       72.95 0.273
  287.4004  420.4756  -8.714  282.2064  331.4725  -8.714      414.38 0.070
  691.2827  444.3520 -10.003  688.8319  330.5498 -10.000     1339.34 0.039
  964.0906  461.6313  -7.090  962.9929  331.1264  -7.084      110.91 0.269
  118.0715  411.7256  -7.052  111.4408  333.1272  -7.054       88.78 0.259
  204.9941  417.4589  -7.646  199.1137  333.5228  -7.647      152.24 0.249
  340.5509  426.3536 -11.355  335.7569  334.0793 -11.354     5314.16 0.021
  538.3585  438.5514  -6.333  534.9516  334.1258  -6.331       66.26 0.448
  662.6880  447.2278  -6.999  660.0524  335.1699  -6.996       90.18 0.397
  725.7042  451.5909  -8.775  723.4562  335.6924  -8.772      432.53 0.071
  528.9104  441.1470  -7.937  525.4274  337.2962  -7.935      195.78 0.154
  977.2330  467.9668  -9.066  976.1715  336.6395  -9.060      593.44 0.073
   74.7558  414.4994  -6.628   67.7013  338.5579  -6.630       67.41 0.338
  701.7324  453.7252  -8.106  699.3386  339.2887  -8.102      229.32 0.127
  922.8702  467.2023  -6.879  921.5699  339.2046  -6.874       75.28 0.316
  124.4208  419.2505  -7.424  117.8047  340.2579  -7.426      136.22 0.254
  647.1811  454.1068  -7.756  644.4208  342.9845  -7.753      166.99 0.152
  119.3929  422.8390  -8.707  112.7091  344.1530  -8.709      466.06 0.056
  767.9338  463.0920  -8.014  765.8742  344.5846  -8.010      233.78 0.152
  927.3348  473.7707  -6.388  926.0333  345.4819  -6.383       54.30 0.358
 1003.7896  478.7201  -7.256 1002.8065  345.7365  -7.250      109.44 0.223
  184.8996  430.1720  -7.254  178.7702  347.4600  -7.255      116.67 0.269
  444.1407  445.2570  -7.579  440.0426  346.5980  -7.578      157.42 0.136
   99.9579  425.4605  -6.782   93.0766  347.9664  -6.784       86.68 0.339
  362.7443  441.3902  -7.804  358.0475  347.7348  -7.804      177.55 0.207
  454.9883  447.0866  -7.980  450.9601  347.7597  -7.979      269.69 0.139
  675.3468  461.0615  -8.293  672.7318  348.1989  -8.290      292.35 0.166
   28.9742  422.3593  -7.044   21.4358  349.2228  -7.047       82.86 0.321
  106.5523  427.0477  -7.162   99.7236  349.1479  -7.164      114.29 0.184
  229.6990  434.1900  -7.248  223.9411  348.7211  -7.249      198.62 0.448
  373.7701  444.3860 -11.248  369.1441  350.0494 -11.248     4929.70 0.031
  904.3811  476.9701  -6.840  902.9620  350.0784  -6.834       83.96 0.266
  682.8810  464.7138  -9.603  680.2969  351.3817  -9.600      898.76 0.061
  712.9057  466.3744  -8.380  710.5245  351.2280  -8.377      299.99 0.129
  821.8162  472.6936  -9.184  820.0053  350.8669  -9.180      783.55 0.061
   81.6114  428.1764  -9.911   74.5400  351.8079  -9.913     1246.78 0.041
  508.3103  454.5970  -9.447  504.6247  351.9885  -9.445      851.07 0.067
  235.4716  438.7533  -7.373  229.7385  352.9256  -7.374      126.28 0.236
  263.4791  440.0530  -6.601  257.9786  352.5013  -6.602       71.42 0.337
  357.2327  446.0828  -7.329  352.4681  352.7607  -7.329      111.42 0.183
  516.1757  458.5654  -9.454  512.5262  355.4685  -9.452      715.21 0.063
  674.4503  468.2156 -11.340  671.8005  355.3932 -11.337     4685.52 0.032
  808.9173  476.1121  -7.106  807.0270  355.0668  -7.101      123.69 0.271
  536.7163  460.0522 -10.743  533.2014  355.6930 -10.741     2846.68 0.039
 1007.1203  490.4841  -6.386 1006.1146  357.2628  -6.380       57.30 0.428
   47.8844  431.7207  -7.592   40.4660  357.4230  -7.595      142.19 0.193
  131.7430  438.7714  -8.094  125.0806  359.3186  -8.095      207.05 0.209
  662.7249  471.2158  -6.176  659.9904  359.1063  -6.174       49.50 0.499
  690.5271  472.3703  -9.627  687.9583  358.5533  -9.624     1016.60 0.049
   40.9790  434.0374  -7.602   33.4788  360.1635  -7.604      138.22 0.194
   64.5783  435.5071  -9.536   57.2990  360.1824  -9.539      903.91 0.052
  141.8789  440.3926  -7.685  135.3007  360.3162  -7.687      177.23 0.154
  414.4943  456.9036  -6.732  410.1178  360.0490  -6.731       75.39 0.425
  988.4191  491.6993 -10.500  987.3298  359.6203 -10.494     2149.90 0.043
  274.7808  449.2112  -6.920  269.3263  360.9564  -6.921       85.17 0.237
  355.0585  454.5375  -8.831  350.2328  361.3397  -8.831      489.68 0.101
  706.1881  475.3079  -7.620  703.7310  360.5551  -7.617      141.41 0.162
  763.9523  479.6815  -9.406  761.8066  361.3814  -9.403      770.91 0.056
  873.8180  485.5929  -6.531  872.2221  360.5518  -6.526       55.59 0.385
 1017.5890  495.1517  -6.599 1016.6128  361.2758  -6.593       67.63 0.355
  154.3785  443.3082 -10.019  147.8983  362.4624 -10.021     1351.41 0.042
  757.1386  479.7365  -6.549  754.9550  361.8536  -6.546       70.57 0.425
  909.7269  489.6553  -7.945  908.2904  362.4033  -7.939      185.16 0.166
  895.8193  489.8265 -12.237  894.3160  363.4264 -12.232    10145.69 0.023
  211.1155  449.2119  -7.669  205.1118  364.8753  -7.670      187.88 0.160
  244.5339  450.9359  -8.698  238.8121  364.5411  -8.699      403.99 0.104
  300.0700  454.8374  -6.311  294.7969  365.0214  -6.311       50.24 0.437
  346.5212  457.4730  -8.891  341.6122  364.7971  -8.891      498.53 0.089
  132.5206  445.3014  -7.689  125.8272  365.7977  -7.691      163.58 0.230
  830.9632  487.9404  -9.112  829.1442  365.5179  -9.107      572.47 0.082
  489.9159  468.4647  -7.155  486.0363  366.9651  -7.154      123.11 0.266
  529.3452  470.9177 -10.665  525.7303  366.9948 -10.664     2949.26 0.031
  683.5367  480.2879  -7.584  680.8932  366.8835  -7.581      171.37 0.178
  732.6440  484.1442  -6.927  730.3044  367.7529  -6.923       82.61 0.230
  930.0622  496.5449  -9.864  928.6976  368.0289  -9.858     1347.12 0.047
  412.8811  466.7451  -7.963  408.4429  369.9777  -7.963      228.51 0.134
  609.8330  478.6844 -13.773  606.7294  369.8069 -13.771    47625.38 0.024
  254.5045  458.4249  -9.659  248.8275  371.4106  -9.660     1005.53 0.044
  840.3101  495.2172  -6.897  838.5131  372.2052  -6.892       79.10 0.285
  471.1361  473.7559  -8.373  467.0963  373.4022  -8.371      288.66 0.080
  916.5445  500.4536  -9.640  915.1041  372.7562  -9.635     1130.81 0.070
   89.9849  452.1207  -9.806   82.8500  375.2291  -9.808     1329.65 0.063
  312.6192  465.4550  -6.363  307.3933  374.8572  -6.363       70.58 0.438
  787.4755  494.5430  -9.265  785.4019  374.7700  -9.261      699.83 0.048
  892.1652  502.2159  -6.691  890.6024  376.0091  -6.686       73.02 0.384
   74.7808  452.6328  -7.220   67.4966  376.6761  -7.223       98.08 0.282
  968.7050  508.1824  -6.827  967.4767  377.2673  -6.821       73.07 0.316
   25.7737  450.8840  -8.931   18.0316  377.9423  -8.933      567.20 0.093
  923.4183  505.6729  -7.008  921.9926  377.5410  -7.003       94.96 0.165
  481.8626  480.6373  -7.922  477.8677  379.6161  -7.921      191.74 0.132
  240.1649  467.0336  -6.320  234.3169  380.8965  -6.321       56.90 0.460
  629.9720  492.0403  -9.495  626.9428  381.9030  -9.493     1043.76 0.079
  375.5507  477.7927  -9.499  370.7669  383.3101  -9.499      918.16 0.052
  862.2563  508.5963  -9.460  860.5238  384.2085  -9.455      824.40 0.060
  278.0802  473.9238  -8.311  272.5201  385.4463  -8.312      254.32 0.100
  315.9386  476.4449  -6.477  310.6817  385.6334  -6.478       58.20 0.429
  563.5962  491.9132  -8.086  560.1248  385.8556  -8.084      266.13 0.127
  959.5056  517.3287 -10.146  958.2068  386.9543 -10.141     1782.42 0.039
  200.5542  471.5487  -6.978  194.3321  387.8496  -6.980       93.20 0.250
  725.2941  504.3781 -10.320  722.8303  388.3985 -10.317     1900.35 0.028
   19.6278  462.4861  -8.628   11.7541  389.9236  -8.631      438.57 0.106
  695.3965  507.6504  -7.634  692.7147  393.4641  -7.631      149.21 0.218
  310.9453  484.5340  -8.126  305.6042  394.0237  -8.127      234.54 0.121
  881.3284  519.8275  -7.281  879.6526  394.2438  -7.276       96.89 0.277
   84.7733  472.5475  -8.795   77.4660  395.9720  -8.797      462.71 0.086
  735.0483  512.6028  -7.934  732.6085  396.0094  -7.931      162.92 0.438
  888.0732  522.1629  -9.388  886.4228  396.1598  -9.384      805.09 0.058
  637.7198  507.8407  -7.390  634.6741  397.2004  -7.388      118.50 0.223
  976.1557  528.5170 -10.547  974.8946  397.0929 -10.541     2417.97 0.131
  464.6295  497.7860  -7.320  460.4265  397.8031  -7.319      108.56 0.246
  724.8574  513.7701  -7.995  722.3530  397.8001  -7.992      224.90 0.132
  983.8763  529.4146  -6.381  982.6466  397.5143  -6.376       60.80 0.444
  468.9539  499.0276  -7.384  464.7770  398.7775  -7.383      118.07 0.335
   95.0531  476.7010 -10.502   87.8202  399.4921 -10.505     2122.68 0.027
  206.6713  484.4980  -9.224  200.4314  400.4157  -9.226      585.78 0.064
  353.4386  492.9056 -13.844  348.4007  399.7709 -13.844    48178.63 0.016
  447.1954  498.5585  -6.721  442.8586  399.6462  -6.720       63.33 0.429
  703.1142  514.4120  -6.937  700.4774  399.7757  -6.934       78.92 0.324
  815.2927  521.6078 -11.213  813.2690  400.0720 -11.209     4574.04 0.033
   33.1754  474.2494  -6.421   25.3502  400.8510  -6.424       73.01 0.468
  194.3100  483.9958  -9.208  187.9619  400.6755  -9.210      723.14 0.067
  241.4612  486.8944  -8.515  235.5153  400.6656  -8.516      308.37 0.163
   23.3942  475.1737  -8.516   15.4805  402.3807  -8.519      314.36 0.106
  254.8181  489.1445 -10.090  248.9761  402.0909 -10.091     1616.79 0.052
  416.6249  498.8277 -10.591  412.0544  401.7951 -10.591     2601.39 0.042
  747.4622  519.2666  -9.453  745.0686  401.8988  -9.450      900.64 0.057
  313.7762  493.5757 -10.260  308.4108  402.8844 -10.261     1787.07 0.027
  573.0627  509.7029  -6.851  569.5775  403.0381  -6.850       86.37 0.286
  123.0663  483.6103  -8.759  116.0601  404.6759  -8.762      480.57 0.070
  368.7029  501.1380  -6.452  363.7456  407.0559  -6.452       67.62 0.380
  735.2716  523.6407  -6.928  732.7903  407.0134  -6.925       96.66 0.290
  149.6347  488.2509  -6.697  142.8515  407.6796  -6.699       60.86 0.332
   36.6089  482.8354  -6.700   28.7654  409.2271  -6.703       62.56 0.451
  990.5389  540.8616 -10.741  989.3038  408.5236 -10.735     2572.54 0.024
  131.5694  489.1378  -7.680  124.6113  409.6791  -7.682      133.13 0.173
  275.3287  498.6472  -6.640  269.6117  410.3235  -6.641       63.80 0.277
  425.3215  507.8959  -7.595  420.7739  410.3191  -7.595      146.06 0.171
  685.8354  523.3827  -7.845  683.0298  409.7580  -7.842      200.58 0.148
  764.5717  528.8733  -8.740  762.2396  410.4373  -8.736      387.91 0.102
  860.7223  534.5371  -7.190  858.8902  410.1863  -7.185      115.62 0.253
  971.3851  540.9254  -8.034  970.0639  409.7637  -8.029      237.81 0.158
  769.7819  530.4214  -9.637  767.4736  411.6625  -9.634      905.47 0.068
  416.7810  509.7230 -10.402  412.1589  412.6703 -10.402     2199.91 0.041
  874.0150  537.9160  -6.972  872.2385  412.7418  -6.968       80.14 0.370
  733.9937  531.5749  -8.494  731.4744  415.0122  -8.491      343.11 0.077
  118.2386  494.8208 -10.291  111.1206  416.1830 -10.293     2043.90 0.037
  149.2001  496.7533  -8.869  142.3636  416.2074  -8.871      461.22 0.108
  446.5548  514.7146  -8.392  442.1360  415.8253  -8.391      327.77 0.127
  607.6023  525.0093  -6.742  604.2839  416.1980  -6.740       83.90 0.376
  911.7492  543.7741  -7.743  910.1398  416.2688  -7.738      182.95 0.172
  521.2838  520.8959 -10.474  517.3843  417.4045 -10.473     2004.83 0.043
  855.0265  541.5006  -9.378  853.1396  417.4851  -9.374      707.87 0.053
  495.0903  519.5351 -10.782  491.0085  417.6559 -10.781     3027.13 0.028
  769.9392  537.8657  -7.106  767.6036  419.0835  -7.102      103.52 0.279
  783.1796  538.8796  -9.894  780.9149  419.2822  -9.890     1367.06 0.052
  663.9622  533.2384  -7.132  660.9774  420.9453  -7.130      108.44 0.227
  682.7720  534.3801  -8.627  679.9015  420.9273  -8.625      472.36 0.079
  870.1671  545.5958  -9.247  868.3434  420.6421  -9.243      679.34 0.064
  920.8221  550.2432  -6.785  919.2349  422.1662  -6.780       75.46 0.349
 1008.1480  555.4879  -6.320 1006.9469  422.0316  -6.315       56.00 0.471
  317.1908  513.9056  -8.782  311.7469  422.9906  -8.783      519.07 0.090
  500.9029  525.0918  -6.846  496.8374  422.8492  -6.845       76.91 0.332
  653.6261  534.7245  -9.495  650.5686  423.0659  -9.492      847.70 0.070
   25.8753  496.6120  -7.595   17.8507  423.6698  -7.599      131.19 0.232
  411.8227  521.0614  -7.173  407.1069  424.3044  -7.173       95.94 0.236
  635.9581  534.3417 -10.657  632.7872  423.7717 -10.655     2815.54 0.039
  952.7202  553.7496 -10.388  951.2728  423.7043 -10.383     2107.00 0.024
  325.0213  516.7295  -9.456  319.6278  425.3297  -9.457      815.38 0.045
  265.3916  515.1301 -10.578  259.4998  427.4115 -10.579     2031.31 0.058
  542.5824  532.1748  -6.755  538.7827  427.3600  -6.754       68.49 0.314
  281.8702  517.0906 -10.262  276.1100  428.3538 -10.263     1808.67 0.026
  690.0984  541.7166  -7.451  687.2433  427.8019  -7.449      162.19 0.256
  115.6291  507.2604  -7.555  108.4129  428.7836  -7.558      153.90 0.158
  666.2357  541.4374  -7.007  663.2308  428.9928  -7.005      108.50 0.338
  840.1050  552.2180  -6.798  838.1009  429.0979  -6.794       77.72 0.229
  145.5163  510.4200  -7.391  138.5658  430.0999  -7.394      146.86 0.168
  716.5693  545.7909  -8.700  713.8915  430.2753  -8.698      471.64 0.106
  845.3913  553.5004  -7.528  843.4103  430.0531  -7.524      141.31 0.136
  184.8494  513.6491  -5.944  178.2467  430.9033  -5.946       35.36 0.462
  240.2974  517.1039  -7.364  234.1749  430.9340  -7.365      142.71 0.200
  851.0989  554.6446  -6.954  849.1437  430.8443  -6.950      106.62 0.353
  298.4746  522.0447  -8.335  292.8299  432.2804  -8.336      323.58 0.114
  585.4026  539.8043  -6.768  581.8682  432.3420  -6.767       85.07 0.366
  284.7169  522.6292  -8.468  278.9515  433.7141  -8.470      333.82 0.223
  529.3714  538.4760  -7.629  525.4485  434.4683  -7.628      128.97 0.183
  892.5224  560.3343  -6.553  890.7603  433.9759  -6.549       65.70 0.305
  635.7033  545.8678  -6.581  632.4813  435.2984  -6.579       69.04 0.447
  173.0866  518.3176  -6.849  166.3486  436.2966  -6.851       75.11 0.338
  782.4536  555.3207  -6.964  780.1229  435.7385  -6.960       80.32 0.354
   98.6483  514.6026  -6.635   91.2246  437.1742  -6.638       74.58 0.415
  230.6445  522.9118  -9.866  224.4043  437.3364  -9.868     1193.62 0.047
 1005.2563  570.1710  -8.127 1003.9977  436.8574  -8.122      310.46 0.157
  191.7490  523.0733  -9.021  185.1563  439.9003  -9.023      614.65 0.044
  946.1095  569.6356  -6.771  944.5795  439.9615  -6.766       86.10 0.421
  261.7078  528.1561  -8.593  255.7131  440.6601  -8.594      383.19 0.111
   67.1373  517.7280  -8.850   59.3855  442.2455  -8.854      422.77 0.110
  395.4664  537.6034 -10.584  390.5405  441.8428 -10.584     3098.50 0.447
  437.1698  540.8588  -7.118  432.5543  442.5240  -7.118       85.59 0.289
  513.7521  544.9854  -7.216  509.6873  441.9325  -7.215      100.63 0.270
  561.9876  549.1956  -8.207  558.2481  443.1663  -8.205      283.82 0.124
  652.3875  554.7592  -9.227  649.2368  443.1502  -9.225      733.37 0.049
  728.2051  559.5121  -8.950  725.5439  443.2593  -8.948      460.09 0.074
  426.0628  541.7207 -10.140  421.3576  444.0691 -10.140     1674.09 0.042
  673.6426  557.1269  -7.151  670.6192  444.2047  -7.149       99.69 0.228
  893.6713  570.3932  -6.510  891.8798  443.9439  -6.506       56.00 0.410
  238.5807  532.1820  -6.466  232.3600  446.1138  -6.468       51.12 0.377
   44.1110  520.6486  -8.485   36.1114  446.5892  -8.488      324.64 0.100
  404.3206  543.3575  -6.452  399.4368  447.0464  -6.452       58.29 0.437
  989.0847  578.9426  -5.946  987.7260  446.6041  -5.941       32.73 0.457
  334.7806  540.6536  -8.965  329.3440  448.6383  -8.966      405.19 0.408
  164.0948  531.5105  -8.704  157.1972  450.0437  -8.706      458.13 0.099
  471.5595  550.3593 -10.056  467.1593  449.8993 -10.056     1552.24 0.073
  586.0428  557.4481  -6.922  582.4344  449.9266  -6.920       85.71 0.304
  767.5631  568.6901 -10.035  765.0972  450.0014 -10.032     1651.97 0.052
  568.1460  558.6088  -7.413  564.4075  452.1900  -7.412      144.22 0.295
  294.9951  542.5333  -8.376  289.2116  452.9754  -8.377      283.62 0.290
  888.9154  579.6070  -7.020  887.0670  453.4326  -7.016       85.87 0.237
  914.2411  581.1811  -7.942  912.5164  453.4443  -7.937      178.19 0.156
  969.8037  583.8922  -7.122  968.3401  452.7296  -7.118      101.07 0.302
  691.0699  568.0342  -8.277  688.1119  454.0234  -8.275      292.57 0.122
  727.1215  572.2393 -10.426  724.4047  456.0339 -10.423     2056.48 0.038
   15.2656  529.1538  -6.428    6.9259  456.8780  -6.432       56.10 0.280
  992.5964  589.6454  -6.383  991.2209  457.0669  -6.378       48.96 0.442
   86.4261  536.3773  -7.033   78.7530  459.7092  -7.036       80.63 0.278
  403.1266  556.4116  -8.938  398.1692  460.1658  -8.938      524.79 0.088
  520.3500  563.0144  -8.157  516.2495  459.5390  -8.156      221.90 0.157
  205.2883  547.2449  -7.119  198.6832  463.2332  -7.121       98.86 0.203
  249.7859  549.6388  -6.500  243.5689  462.8742  -6.502       49.57 0.406
  793.6160  583.5711  -9.228  791.2421  463.2551  -9.225      691.91 0.050
  423.1915  562.6323 -10.848  418.3631  465.1431 -10.848     2945.78 0.057
  438.6830  563.1055  -8.274  433.9724  464.6613  -8.274      310.67 0.106
  532.1770  569.8183  -6.206  528.1302  465.6086  -6.205       40.84 0.428
  622.1255  575.6244  -6.466  618.6843  465.8575  -6.464       52.18 0.468
  675.5629  580.4472  -6.754  672.4542  467.3775  -6.753       53.62 0.345
  243.3786  554.6129  -7.211  237.0771  468.2440  -7.213      104.11 0.221
  725.0601  583.8770  -9.357  722.2859  467.7818  -9.354      805.63 0.077
  613.4574  579.3088  -7.351  609.9413  470.0731  -7.350      140.98 0.166
  903.8585  597.5245  -7.694  902.0249  470.3959  -7.690      141.49 0.243
  484.6917  572.1950  -8.725  480.2868  470.9092  -8.725      440.82 0.076
  558.7578  576.3575  -8.465  554.8729  470.5014  -8.464      332.32 0.083
  135.1116  551.7078  -7.462  127.8219  472.0345  -7.464      135.83 0.384
  301.9279  561.6799  -8.988  296.1022  471.6874  -8.989      565.65 0.070
  541.9812  577.0907  -7.673  537.9722  472.2698  -7.672      164.49 0.170
  579.0973  578.4951  -9.199  575.3469  471.3813  -9.198      578.03 0.069
  688.3848  585.7487  -7.492  685.3362  471.8815  -7.490      143.79 0.212
  829.5450  594.8638  -7.994  827.3276  472.3174  -7.991      204.02 0.187
  185.4919  555.2231  -8.035  178.6588  472.4354  -8.038      202.02 0.242
  931.3257  601.9913  -7.221  929.6168  473.1616  -7.217      104.51 0.236
  377.6005  568.9540 -10.782  372.3741  474.2794 -10.783     2831.51 0.023
  724.0871  590.0418  -9.524  721.2833  473.9981  -9.521      880.44 0.116
  806.5442  594.7932  -9.615  804.2007  473.6634  -9.612     1020.19 0.062
  561.5907  581.5398  -7.060  557.7026  475.5043  -7.059       86.67 0.337
   75.2928  552.7938  -9.579   67.4108  476.8210  -9.583      954.85 0.050
  115.8227  555.3295  -7.939  108.3251  476.8502  -7.942      212.85 0.161
   67.4919  552.9743  -6.861   59.5308  477.4843  -6.864       76.13 0.255
  915.5975  606.1383  -6.327  913.7949  478.2703  -6.323       47.24 0.480
  330.7335  571.0645  -8.804  325.1050  479.2876  -8.806      483.36 0.094
   49.6789  554.7143  -7.697   41.5278  480.3276  -7.701      143.95 0.164
  198.6859  563.8669  -9.518  191.9264  480.2640  -9.520      935.10 0.048
  108.4934  559.4056  -9.654  100.9002  481.3813  -9.657     1026.19 0.037
  283.8401  569.7329  -7.377  277.8145  480.8581  -7.379      131.03 0.231
  377.9174  575.9165  -9.306  372.6587  481.2193  -9.307      739.66 0.091
  569.2130  589.0389 -10.949  565.3455  482.5262 -10.948     3076.23 0.034
  767.8471  601.4080  -7.458  765.2589  482.6522  -7.456      137.63 0.225
  161.3466  565.5960  -6.903  154.2270  484.3032  -6.906       86.54 0.273
  609.6853  593.6892  -6.360  606.0806  484.6725  -6.359       48.55 0.424
  267.7887  573.0435  -6.670  261.6039  485.1620  -6.672       71.54 0.320
  322.7303  576.3224  -7.486  317.0062  485.0392  -7.487      173.92 0.219
  364.2699  579.1949 -11.186  358.8818  485.3406 -11.187     4361.44 0.017
  132.3088  565.1212  -7.669  124.9137  485.6252  -7.672      157.22 0.214
  336.8566  579.3288  -9.911  331.2373  487.1707  -9.912     1391.74 0.040
  394.0610  582.4603  -8.506  388.9019  486.7616  -8.507      350.71 0.139
  425.2584  584.2377  -8.652  420.3418  486.6089  -8.652      356.68 0.108
  793.6349  607.5765  -9.161  791.1712  487.2227  -9.159      696.78 0.066
  806.2920  608.4935  -8.284  803.8961  487.3583  -8.281      305.08 0.126
  951.3138  616.6404  -9.838  949.6566  486.5506  -9.833     1131.79 0.047
  562.1828  593.6703  -6.494  558.2443  487.5882  -6.493       63.20 0.379
  703.3936  602.7703  -7.166  700.4139  487.9855  -7.164      105.71 0.494
  859.9649  612.1774 -11.499  857.8470  487.7291 -11.495     5979.64 0.022
  417.4109  586.0441  -7.144  412.4232  488.8993  -7.144       96.89 0.268
  524.8506  592.8156 -11.572  520.6454  489.0398 -11.571     6180.13 0.024
  584.5638  595.9833  -7.414  580.7740  488.5165  -7.413      119.27 0.195
  832.3618  611.8525  -6.779  830.0972  489.1056  -6.776       67.82 0.310
  617.8071  599.8130  -6.398  614.2314  490.2890  -6.397       57.21 0.314
  642.1580  601.1743 -10.228  638.7416  490.1447 -10.227     1881.06 0.041
  179.3465  573.4612 -11.118  172.3521  491.0562 -11.120     3993.77 0.033
  203.7243  575.9569  -6.740  196.9433  492.0432  -6.743       83.48 0.294
  955.5627  624.2899  -9.221  953.9019  493.9237  -9.217      785.82 0.052
   57.6307  570.1659  -6.775   49.4662  495.2965  -6.779       68.36 0.413
  216.2198  579.6152  -7.135  209.5336  494.9277  -7.137       96.13 0.314
  709.6822  610.2942  -9.032  706.7120  495.1125  -9.030      631.24 0.078
  791.1608  615.1301  -7.769  788.6548  494.9179  -7.766      182.74 0.155
  229.2666  581.6020  -7.849  222.6887  496.1064  -7.851      211.41 0.176
  486.9349  597.5391  -6.460  482.4279  496.0987  -6.460       45.54 0.408
  681.4713  609.2621 -10.572  678.2805  495.7959 -10.570     2467.80 0.037
  893.1841  622.8202  -9.647  891.2063  496.3054  -9.644      842.12 0.306
  338.5898  589.0514  -7.592  332.9350  496.7839  -7.593      175.43 0.179
  561.4383  603.2191  -8.735  557.4514  497.1759  -8.734      425.96 0.128
  719.3260  612.2724  -9.798  716.4073  496.4936  -9.796      970.81 0.068
  127.3227  577.8262  -7.838  119.8049  498.6438  -7.842      161.93 0.372
  905.1644  625.8307  -7.900  903.2399  498.5715  -7.897      181.18 0.217
  666.3050  614.5599  -6.982  662.9926  502.0255  -6.980      103.73 0.326
   37.8560  577.2264  -8.838   29.4467  503.5874  -8.842      432.06 0.082
  233.4637  589.2793 -10.615  226.8815  503.5243 -10.617     2274.61 0.049
 1015.9842  638.3835  -6.326 1014.5677  504.2613  -6.321       47.67 0.465
  704.6042  619.7011  -7.285  701.5660  504.8218  -7.283      119.03 0.192
  371.7649  599.8467  -7.231  366.3350  505.5224  -7.232      103.21 0.267
  422.7874  603.4781  -7.178  417.7584  505.9933  -7.179       99.81 0.267
  607.5897  614.5498  -7.323  603.8792  505.6449  -7.322      120.05 0.191
  896.2398  633.6713  -7.120  894.2405  506.9501  -7.116      103.47 0.247
  957.1717  637.7663  -6.725  955.4756  507.2762  -6.720       78.37 0.444
  982.0471  638.6214  -6.988  980.4713  506.5942  -6.983       82.65 0.368
  595.6046  616.5575  -6.422  591.8015  508.3921  -6.421       58.36 0.447
  849.9590  631.4893  -6.667  847.7175  507.6279  -6.664       61.67 0.347
  129.4373  588.5923  -6.435  121.8771  509.2838  -6.438       58.67 0.322
  302.0872  598.9720  -9.509  296.0650  508.9642  -9.511      981.26 0.054
  362.1471  602.6002  -8.532  356.6225  508.8710  -8.533      316.05 0.166
  435.0893  607.4769  -8.751  430.1378  509.2311  -8.752      423.25 0.111
  104.2315  587.8416  -8.386   96.4279  510.0951  -8.390      316.48 0.083
  110.1401  587.3713  -8.277  102.3978  509.2583  -8.281      217.14 0.215
  634.8247  621.8964  -9.096  631.2699  511.3016  -9.095      619.94 0.082
  747.6140  629.3886  -7.445  744.8002  511.8440  -7.443      144.82 0.176
  768.3890  630.7764  -9.369  765.6927  511.9481  -9.367      826.12 0.058
  951.0087  641.6869  -9.153  949.2689  511.5704  -9.149      627.35 0.062
  193.4090  595.8506 -10.412  186.4195  512.5802 -10.414     1864.61 0.043
  308.6511  603.1494  -7.662  302.6640  512.7347  -7.664      150.55 0.225
  315.8069  605.1611 -10.445  309.8717  514.3029 -10.447     2211.35 0.027
  376.3014  608.8270  -5.938  370.8642  514.2198  -5.939       35.75 0.445
  528.6412  618.0509 -13.785  524.3476  514.0255 -13.784    47309.89 0.027
  174.8485  597.6853  -6.398  167.6732  515.5660  -6.401       51.21 0.345
  392.9090  611.6438  -7.391  387.5958  516.0072  -7.392      137.07 0.239
  628.3477  626.5711  -8.026  624.7289  516.3728  -8.025      231.03 0.172
  899.9008  642.4967  -9.016  897.8909  515.5355  -9.013      517.96 0.075
  454.4707  616.3996  -7.175  449.6270  516.9539  -7.175       91.51 0.339
  761.6640  635.7219  -8.158  758.9091  517.3027  -8.156      264.35 0.124
   67.5316  593.4391  -6.624   59.3269  517.9720  -6.628       70.76 0.301
  259.2058  605.2035  -6.812  252.7697  517.8550  -6.814       73.86 0.376
  780.2172  637.8605  -7.127  777.5627  518.2935  -7.124       81.29 0.262
  848.9204  641.1787  -6.701  846.6387  517.3674  -6.698       58.63 0.377
  994.5379  650.4781 -12.007  992.9845  517.6575 -12.003     9385.10 0.028
  570.5692  626.0219  -9.621  566.5464  519.3979  -9.620      852.07 0.038
  787.2307  638.9615  -6.535  784.6127  518.9603  -6.533       56.36 0.479
  159.2278  601.1525  -7.012  151.8833  520.0032  -7.016      103.10 0.214
  267.1757  607.6122  -8.361  260.7983  519.7699  -8.364      345.34 0.099
  467.0987  620.8464  -7.799  462.3312  520.6191  -7.799      197.42 0.150
  861.0245  645.6663  -7.361  858.7921  521.1018  -7.358      143.17 0.214
  284.1120  611.6017  -7.687  277.8645  522.7096  -7.690      172.59 0.176
   59.7727  600.3732  -7.854   51.4473  525.3925  -7.858      155.71 0.151
  386.1150  620.5451  -8.282  380.7007  525.3285  -8.283      280.72 0.116
  683.3880  638.1169  -8.565  680.0910  524.5044  -8.563      349.26 0.132
  715.5043  640.9004 -12.294  712.4486  525.3256 -12.292    10386.98 0.012
  804.1851  645.8671  -8.382  801.6384  524.8106  -8.379      305.65 0.111
  920.0182  654.7280  -7.005  918.0749  526.5045  -7.001       86.53 0.237
  572.0608  634.2721  -6.251  568.0127  527.5499  -6.250       51.70 0.476
   97.9359  607.4485 -12.791   89.9538  530.1049 -12.795    21073.85 0.023
  140.4986  609.8843  -9.802  132.9223  529.9013  -9.805     1204.40 0.069
  510.4457  633.0187  -9.968  505.9497  530.1080  -9.968     1320.91 0.116
  777.2022  649.1413 -10.627  774.4871  529.7470 -10.625     2321.40 0.028
  210.7749  616.4421  -6.993  203.8322  532.1022  -6.996       99.00 0.278
  370.9619  628.3902  -7.431  365.3806  534.1129  -7.433      138.22 0.170
  491.5082  635.8642  -8.254  486.8564  534.1226  -8.255      320.97 0.146
  698.0518  648.5476 -10.469  694.8087  534.0187 -10.467     1957.03 0.174
  976.3390  666.0944  -8.492  974.6482  534.3712  -8.488      276.40 0.108
 1006.2257  667.9192  -8.622 1004.6729  534.3450  -8.618      374.21 0.081
  407.7544  631.9515  -9.541  402.4622  535.3922  -9.542      797.67 0.077
  471.9047  635.5105  -8.347  467.1045  534.9810  -8.347      318.42 0.107
  954.9172  665.7308  -6.347  953.1194  535.3326  -6.343       48.53 0.336
  381.5523  630.5172 -10.366  376.0494  535.5831 -10.367     1991.37 0.030
  607.9063  645.3126  -6.965  604.0661  536.3645  -6.965       86.42 0.264
  749.2576  653.5695 -10.160  746.3586  535.8966 -10.158     1630.50 0.043
  513.7935  640.4781  -7.526  509.2884  537.3569  -7.526      145.93 0.211
  188.2529  621.5222  -7.146  181.0693  538.5825  -7.149       93.21 0.283
  429.1689  636.0440  -6.514  424.0306  538.1572  -6.515       70.83 0.453
  484.5137  639.1187  -6.551  479.7934  537.8083  -6.551       62.41 0.471
  576.7046  644.7450  -7.388  572.6443  537.7285  -7.388      121.76 0.166
  922.0668  666.5624  -7.058  920.0952  538.1943  -7.054      110.86 0.314
   73.7103  614.9488  -7.556   65.4394  539.1145  -7.560      129.77 0.151
  144.0011  619.6077  -9.094  136.4026  539.4132  -9.098      525.69 0.068
  239.7131  625.4714  -6.595  232.9888  539.3386  -6.598       79.50 0.427
  669.8894  651.5700  -6.773  666.4485  538.7813  -6.772       79.91 0.461
  375.2170  634.2101  -8.037  369.6421  539.6690  -8.039      208.55 0.126
  325.3427  632.5804 -10.195  319.3479  541.1340 -10.197     1681.16 0.033
  545.8159  646.2009  -7.411  541.5231  541.0958  -7.411      131.81 0.208
  976.0241  672.9256  -7.776  974.3100  541.2106  -7.772      186.60 0.201
  442.5510  644.0738  -6.467  437.4800  545.3579  -6.468       62.74 0.497
  187.3356  630.5156  -8.343  180.0923  547.6377  -8.346      317.75 0.107
  715.6357  663.1997 -10.232  712.4899  547.5956 -10.230     1489.84 0.041
 1014.7398  681.8788  -6.447 1013.1835  547.7538  -6.443       60.56 0.404
  120.4801  627.8053  -5.977  112.6025  549.0769  -5.981       40.07 0.467
  140.9476  629.5963  -6.531  133.2614  549.5981  -6.535       67.83 0.399
  478.1113  650.8469  -7.037  473.2865  549.9290  -7.037       97.57 0.335
  736.9865  666.9960  -8.618  733.9590  550.0685  -8.616      449.44 0.089
  875.5842  675.4282  -6.874  873.3289  549.9236  -6.871       72.90 0.318
  606.1274  659.6993  -6.937  602.2133  550.8519  -6.936      112.20 0.345
  727.6810  667.1641  -8.351  724.5948  550.8117  -8.349      247.89 0.237
   28.5620  624.8697  -8.732   19.7670  551.8419  -8.737      443.27 0.114
  330.5988  643.5927  -8.718  324.5928  551.8222  -8.720      429.70 0.068
  560.0200  657.9499 -12.439  555.7802  551.9589 -12.439    14586.20 0.029
  302.5536  643.1375  -9.727  296.3029  553.1085  -9.729     1116.73 0.048
  775.6057  672.6992  -9.318  772.7911  553.3782  -9.316      798.93 0.082
  805.5536  674.3274 -10.500  802.9094  553.1532 -10.497     2419.70 0.044
  917.6910  681.3585 -10.751  915.6469  553.2397 -10.748     2805.70 0.017
  315.2200  644.3159  -8.231  309.0752  553.5006  -8.233      270.90 0.128
  424.8468  651.6352 -13.561  419.5970  554.0147 -13.562    38140.42 0.020
  580.1568  661.6254  -9.314  576.0480  554.3853  -9.314      778.68 0.071
  668.4775  666.9539  -6.136  664.9643  554.2411  -6.135       43.81 0.445
  903.1331  681.3284  -8.873  901.0103  554.1108  -8.870      510.59 0.069
  936.7221  683.4074  -8.540  934.7724  554.1078  -8.537      402.35 0.125
  960.8591  685.2156  -6.262  959.0289  554.4196  -6.258       53.77 0.450
  199.3323  638.6818  -6.533  192.1567  555.0638  -6.536       65.06 0.476
  867.6672  679.5352  -7.059  865.3536  554.5153  -7.056       86.32 0.302
  996.2518  687.7538  -7.739  994.5895  554.7633  -7.735      200.10 0.141
   86.6061  632.9833  -8.412   78.3584  556.3634  -8.416      284.42 0.106
  266.0236  643.5999  -6.885  259.4416  555.8404  -6.887       70.76 0.412
  715.4837  671.6069  -9.668  712.3027  556.0051  -9.666      995.84 0.076
  856.9151  679.9382  -7.388  854.5413  555.5824  -7.385      116.44 0.164
   80.3892  633.4936  -7.324   72.0753  557.2604  -7.328      142.55 0.363
   96.8089  634.1827  -9.933   88.6571  556.9298  -9.937     1322.86 0.080
  464.7275  658.2195  -9.497  459.7634  558.1287  -9.498      969.61 0.055
   28.2084  631.5075  -7.381   19.3701  558.5087  -7.385      101.89 0.195
  681.8061  672.8788  -7.204  678.3582  559.3365  -7.203       96.81 0.256
  333.0555  651.6616  -6.860  327.0291  559.7406  -6.862       92.33 0.382
  122.4893  639.9331  -9.939  114.5607  561.0894  -9.943     1381.96 0.499
  186.5644  644.3874  -9.874  179.2349  561.5659  -9.878     1229.66 0.053
  194.6951  646.7762  -8.608  187.4297  563.4511  -8.612      289.73 0.218
  293.1611  652.2773  -7.278  286.7782  562.8351  -7.280      125.27 0.228
   75.5780  640.3432  -7.438   67.1742  564.4154  -7.443      140.84 0.232
  736.1953  680.6124  -7.032  733.1085  563.7218  -7.030       93.75 0.243
  241.2066  651.1263  -6.687  234.3552  564.9126  -6.690       59.16 0.419
  637.5193  677.2840 -13.636  633.7515  566.4820 -13.636    37251.60 0.025
  257.0072  654.2682  -7.248  250.2848  567.0739  -7.251      124.19 0.209
  655.0019  678.9167  -9.385  651.3480  567.0307  -9.384      768.03 0.096
  699.0977  681.6327  -7.323  695.7294  567.0135  -7.321      126.53 0.206
  723.3532  683.0539  -6.956  720.1757  566.9559  -6.955       87.94 0.279
  545.3650  672.8554  -6.852  540.9501  567.7656  -6.852       94.12 0.305
  761.3431  686.6914  -6.749  758.3881  568.2396  -6.747       56.71 0.421
  589.8427  676.8883  -7.801  585.7380  569.0405  -7.800      195.68 0.136
  204.3502  654.4518  -7.171  197.1335  570.5316  -7.174       86.90 0.227
  219.6738  654.4313  -7.392  212.6026  569.5582  -7.395      113.90 0.240
  738.5269  688.5196  -6.907  735.4232  571.4782  -6.906       73.01 0.302
  537.5252  677.3365  -7.232  533.0312  572.7309  -7.232      103.93 0.248
  843.1492  696.4736  -7.668  840.6404  572.9504  -7.666      162.17 0.203
  731.7774  691.7731  -7.596  728.6181  575.1471  -7.595      188.74 0.325
  902.7742  702.1416 -11.419  900.5796  574.9195 -11.416     5220.64 0.018
  924.1450  703.1547  -8.422  922.0634  574.6072  -8.419      354.33 0.133
  610.3027  685.3266  -8.482  606.3090  576.2069  -8.482      342.08 0.083
  835.7075  699.3992  -8.517  833.1459  576.3334  -8.515      346.33 0.089
  964.1801  707.0362 -13.980  962.2968  576.0029 -13.976    57628.99 0.027
   17.2647  649.0549  -7.280    8.2056  576.7564  -7.284      123.61 0.210
  687.8801  690.7593  -7.055  684.4008  576.8292  -7.054       94.76 0.257
  108.4015  656.4128  -7.439  100.2353  578.4595  -7.444      122.59 0.187
  129.0718  658.3582 -13.799  121.1010  579.1212 -13.803    51996.08 0.017
  403.5693  674.8244  -7.848  398.0283  578.5271  -7.849      202.01 0.174
  459.1721  678.7381  -7.494  454.0658  578.9899  -7.495      159.22 0.336
  864.2733  704.0702  -9.492  861.8566  579.2317  -9.489      931.95 0.077
   91.4546  657.1343  -7.883   83.1126  580.2359  -7.887      204.21 0.122
  221.1703  665.4336  -9.429  214.0520  580.4746  -9.432      764.28 0.050
  354.8100  673.4317  -7.769  348.8608  580.1653  -7.771      192.92 0.121
  416.4930  677.2657 -10.131  411.0477  580.1655 -10.133     1829.94 0.050
  895.6537  706.7057  -7.509  893.4043  579.9196  -7.506      120.77 0.295
  166.6070  662.3185  -8.241  158.9827  580.7506  -8.245      288.03 0.127
  330.9043  672.4263  -7.806  324.7515  580.6460  -7.808      164.53 0.170
  369.8979  675.2590  -6.420  364.0694  581.0551  -6.422       44.86 0.420
  695.9305  695.8164  -9.979  692.4846  581.3845  -9.978     1182.10 0.063
  431.5185  681.0326 -13.611  426.1781  583.0000 -13.613    42917.02 0.024
  573.5806  690.5641  -8.333  569.2976  583.7187  -8.333      300.99 0.107
  768.4555  703.3983  -7.740  765.4796  584.4922  -7.738      161.17 0.224
  987.3084  716.1569  -9.544  985.5131  583.6777  -9.540      833.66 0.083
  792.4303  705.3365  -7.414  789.5930  584.9441  -7.412      131.67 0.219
  235.0634  671.3561  -8.764  228.0433  585.5367  -8.767      444.82 0.087
  409.3970  682.6906  -8.489  403.8656  586.0326  -8.491      382.38 0.106
  920.4557  714.1764  -7.023  918.3176  585.8439  -7.020      114.20 0.297
  753.2000  704.8914 -11.366  750.1235  586.9290 -11.364     5582.86 0.025
  851.8087  711.0589  -9.851  849.2976  586.9847  -9.849     1291.96 0.041
 1011.2159  721.3284  -6.742 1009.5205  587.3597  -6.738       62.65 0.311
  940.7897  718.0202 -10.597  938.7483  588.4222 -10.594     2326.39 0.028
  312.8222  679.7614  -9.203  306.4709  589.1092  -9.206      613.45 0.056
  271.4592  678.0036 -10.778  264.7416  589.9239 -10.781     3106.12 0.031
  514.3839  693.4491  -6.559  509.6413  590.2744  -6.559       64.72 0.439
  855.8923  716.8542  -8.856  853.3841  592.5214  -8.854      426.09 0.103
  930.7893  722.2675 -10.416  928.6804  593.2845 -10.413     1979.87 0.048
  260.2528  682.2220  -8.155  253.4088  594.8424  -8.158      247.05 0.128
  361.3523  688.5773  -6.410  355.3823  594.9096  -6.412       57.14 0.421
  100.5279  673.1808  -8.089   92.1830  595.7345  -8.093      237.39 0.155
  179.9027  677.8665  -7.086  172.3188  595.4849  -7.090       95.32 0.259
  919.1310  723.9698  -9.925  916.9533  595.7080  -9.922     1431.41 0.053
 1005.8119  729.9755  -9.822 1004.0635  596.3296  -9.818     1203.26 0.051
  628.1381  708.5344  -6.671  624.1733  598.2994  -6.671       76.66 0.338
  105.8696  676.6603  -7.967   97.5584  598.8852  -7.971      205.13 0.153
  400.0870  694.9718  -9.936  394.4160  598.8962  -9.938     1265.89 0.053
  532.3635  703.3850  -8.446  527.7135  599.0927  -8.447      346.97 0.112
  704.7896  713.4187  -8.854  701.3677  598.4503  -8.853      439.83 0.095
   60.1485  674.9720  -8.241   51.3778  600.0418  -8.246      254.34 0.130
   90.8203  676.2405  -9.597   82.3584  599.4019  -9.602      817.28 0.073
  771.0991  718.8683  -7.764  768.0799  599.7867  -7.763      171.41 0.250
  190.4839  683.8959  -7.424  182.9680  600.8610  -7.428      151.11 0.219
  383.9632  695.9900  -6.101  378.1501  600.9181  -6.103       43.75 0.471
  851.2197  725.0136  -7.149  848.6562  600.9625  -7.147      117.76 0.329
  359.3705  695.3135  -6.909  353.3489  601.7720  -6.911       80.84 0.326
  474.2484  704.1462  -7.081  469.1413  603.4630  -7.082      110.70 0.355
  251.1810  690.4245  -7.714  244.2077  603.6155  -7.717      170.57 0.166
  760.7088  722.0665  -9.223  757.6123  603.6267  -9.222      688.81 0.064
  237.9157  690.8527  -6.655  230.8152  604.8701  -6.658       77.87 0.298
  399.1028  701.6026  -8.093  393.3903  605.5905  -8.095      239.24 0.170
  526.3357  711.1289 -10.295  521.6047  607.2098 -10.295     1837.79 0.040
  316.2919  698.8458  -7.726  309.8719  607.9883  -7.729      181.93 0.154
  770.0406  727.4405  -7.154  766.9819  608.4187  -7.152       99.82 0.476
  623.3259  718.8726  -9.562  619.2833  608.9328  -9.561      871.27 0.224
  638.5450  719.9405 -10.719  634.6064  609.0560 -10.718     2771.23 0.035
  132.3568  688.9944 -10.418  124.2402  609.5834 -10.422     2090.04 0.030
  655.2382  722.0161 -11.066  651.4083  610.0953 -11.066     3637.10 0.045
  250.6042  697.9126  -7.120  243.5846  611.1453  -7.123       90.94 0.191
  376.3117  705.2252  -7.424  370.3863  610.6335  -7.426      123.04 0.189
  418.5458  708.0507 -10.818  412.9648  610.8306 -10.820     3357.84 0.035
  842.8150  734.3058  -7.076  840.1702  610.7674  -7.074      111.76 0.243
  849.9392  735.5632  -7.922  847.3314  611.5822  -7.920      189.24 0.179
  979.9659  744.1408  -7.123  978.0452  612.0803  -7.120       96.42 0.212
   27.8512  685.4541  -6.862   18.6870  612.5448  -6.867       74.29 0.280
  468.6830  713.0565  -7.352  463.4890  612.7202  -7.353      111.32 0.211
  718.8168  728.6193 -10.115  715.4250  612.7733 -10.114     1526.88 0.037
  935.0770  742.0301  -9.387  932.9263  612.7586  -9.384      904.66 0.058
   41.7575  687.6038  -8.565   32.7177  613.8354  -8.570      389.23 0.094
  144.4819  693.8479  -9.267  136.4581  613.6870  -9.271      644.75 0.078
  668.5158  726.5041  -7.900  664.7598  613.7580  -7.899      225.32 0.138
  614.1390  724.1520 -13.908  610.0079  614.7808 -13.908    56623.48 0.027
  367.3794  709.9230  -8.604  361.3528  615.8899  -8.606      380.59 0.115
  592.5344  723.9157  -8.451  588.2465  615.8855  -8.452      363.51 0.100
  732.7144  732.5653  -9.581  729.3975  615.8553  -9.580      943.82 0.061
  678.4936  729.9513  -7.735  674.7924  616.5849  -7.735      175.86 0.185
  754.3497  735.1358 -14.378  751.1620  617.0823 -14.376   557549.06 0.000
  783.4698  736.8517  -8.283  780.4587  616.9910  -8.282      277.09 0.136
  846.6018  740.2090  -7.916  843.9582  616.4310  -7.914      187.46 0.143
  985.3126  749.5800  -8.132  983.4017  617.1810  -8.129      265.13 0.132
  819.8091  739.7361  -9.196  817.0089  617.6198  -9.194      672.29 0.067
  386.1758  716.4626 -10.034  380.2784  621.2619 -10.037     1467.92 0.057
   79.5223  698.1633  -6.667   70.8135  622.0552  -6.672       74.68 0.453
   96.0462  698.5356  -7.495   87.5056  621.3980  -7.499      125.47 0.195
  339.1606  714.3650  -8.279  332.8638  622.0925  -8.282      289.65 0.104
  998.5995  755.7688  -8.766  996.7352  622.5373  -8.763      405.56 0.159
  192.4614  708.4705 -10.079  184.8254  625.3358 -10.083     1557.02 0.040
  271.1747  713.1533 -10.706  264.2654  625.1166 -10.710     2828.54 0.033
  350.1947  717.6950  -8.345  343.9782  624.7369  -8.347      357.04 0.145
  570.7991  732.0754  -6.906  566.3138  625.3933  -6.906       84.70 0.421
  648.9490  737.1207  -6.790  645.0125  625.5859  -6.790       76.80 0.446
  290.8121  717.1340  -9.041  284.0636  627.8766  -9.044      642.34 0.067
  615.8054  737.1779 -11.324  611.6310  627.7008 -11.325     4536.13 0.036
  656.2303  739.6585  -9.489  652.3346  627.6711  -9.488      852.99 0.063
  179.5166  712.5273  -9.483  171.7315  630.2037  -9.487      922.17 0.053
  780.2982  750.0346  -8.577  777.2174  630.3628  -8.575      365.19 0.098
  794.2387  750.6245  -6.267  791.2426  630.0872  -6.266       57.84 0.414
  480.7051  731.7884  -7.869  475.5192  630.7084  -7.870      175.38 0.149
  752.4921  748.6974  -9.714  749.2397  630.7522  -9.713     1095.76 0.114
  894.5172  757.5628  -7.019  892.0897  630.7954  -7.017      116.16 0.238
  221.1450  716.7804  -9.545  213.7407  631.8659  -9.549      861.82 0.140
  490.8633  733.4079  -7.938  485.7512  631.6962  -7.939      202.04 0.188
  578.2508  738.6759  -8.490  573.7921  631.5314  -8.491      337.49 0.090
   66.8716  708.1194  -7.875   57.9716  632.8136  -7.880      238.25 0.179
  251.1926  719.9299  -7.369  244.0582  633.1447  -7.372      136.03 0.202
  256.2871  720.4151  -7.472  249.1983  633.3128  -7.475      130.61 0.157
  286.7182  722.0542  -6.579  279.9053  633.0561  -6.582       79.70 0.359
  431.0407  730.6502  -6.568  425.4529  632.6613  -6.570       51.77 0.471
  888.2813  759.1331  -7.087  885.8127  632.7518  -7.085       98.79 0.191
  976.4694  764.3883 -12.869  974.4662  632.5210 -12.866    16675.25 0.021
   52.7371  708.6696  -7.792   43.6854  634.2463  -7.797      167.30 0.114
  153.7882  714.0697  -7.009  145.7402  633.3516  -7.013       86.92 0.361
  503.9338  737.8801  -9.452  498.9048  635.3564  -9.453      807.91 0.076
  173.5258  717.5474  -8.473  165.6533  635.6028  -8.477      308.40 0.085
  845.3781  760.2498  -6.511  842.6562  636.5321  -6.509       54.73 0.453
   37.4612  711.8743  -8.947   28.2283  638.4089  -8.952      495.48 0.067
  270.8534  725.7279  -9.357  263.8727  637.7221  -9.360      691.36 0.284
  333.8025  729.6112  -7.864  327.3784  637.6832  -7.867      187.03 0.131
  996.4814  771.0271 -14.233  994.5590  637.9083 -14.230   487011.88 0.000
  793.3416  759.3924  -6.332  790.3073  638.9055  -6.331       57.60 0.435
  866.8041  763.6346  -7.019  864.1956  638.5843  -7.017       91.64 0.339
  327.3204  731.7586  -7.201  320.8268  640.2365  -7.204      103.65 0.274
  712.5109  755.3657  -6.316  708.9700  639.9007  -6.316       57.77 0.383
  811.9840  761.5726  -6.634  809.0566  639.9270  -6.633       65.72 0.357
  184.7913  723.8601  -8.652  176.9936  641.2201  -8.656      455.22 0.084
  435.7185  738.8966  -6.682  430.1297  640.6206  -6.684       78.37 0.393
  486.8162  742.2285  -7.155  481.6300  640.7720  -7.156      121.45 0.265
  163.1261  723.0346  -8.825  155.1195  641.7448  -8.829      529.31 0.085
  936.0857  772.8397  -6.700  933.8391  643.4733  -6.697       59.03 0.365
   81.5532  720.8213  -7.996   72.7305  644.6180  -8.001      229.40 0.173
  210.6009  729.3191  -9.056  203.0245  645.0751  -9.060      707.01 0.104
  701.3561  759.2857  -6.221  697.6918  644.4908  -6.221       42.69 0.467
  284.8379  735.4820  -6.454  277.9350  646.6128  -6.457       48.63 0.384
  412.8880  743.2579 -10.021  407.0854  646.4072 -10.023     1336.22 0.058
  661.8333  759.0917  -6.644  657.8953  646.7529  -6.644       62.73 0.416
  572.6103  755.0265  -6.878  568.0358  648.2349  -6.879       95.80 0.306
  623.0522  760.0054  -8.294  618.8315  650.0775  -8.294      310.91 0.134
  181.8345  733.6885  -7.811  173.9521  651.2444  -7.815      206.65 0.150
  715.6825  766.5233  -8.447  712.1188  650.8583  -8.447      348.07 0.094
  819.9282  772.9652  -7.037  817.0078  650.8193  -7.036       94.91 0.276
  367.9112  745.9110  -6.202  361.7056  651.8676  -6.205       37.02 0.488
  548.1785  757.1082  -8.163  543.4070  651.8368  -8.163      256.40 0.121
  922.4606  780.3886  -7.641  920.1135  651.8624  -7.638      169.13 0.145
  885.8053  779.9170  -8.431  883.2509  653.6722  -8.429      349.89 0.105
  473.5944  755.6691 -11.460  468.2373  655.0424 -11.462     5918.40 0.026
  766.8023  774.2997  -8.818  763.5442  655.4547  -8.817      386.51 0.071
  295.3559  745.2917  -7.290  288.4979  655.7755  -7.293      102.21 0.271
  971.3534  787.0461  -6.965  969.2510  655.4716  -6.962      105.93 0.290
  121.9487  737.0697  -9.203  113.4466  658.3681  -9.208      579.75 0.051
  458.3685  759.8138  -8.385  452.8667  660.1382  -8.387      347.79 0.088
  608.0992  768.9443  -8.301  603.7296  659.9474  -8.301      332.91 0.124
  399.6524  757.3029 -10.161  393.6666  661.2873 -10.164     1549.77 0.051
  285.1177  750.6197  -6.858  278.1356  661.7476  -6.861       81.79 0.251
  668.1492  774.5902  -8.526  664.1909  661.8573  -8.526      364.97 0.084
  736.7505  779.2360  -7.149  733.2775  662.2580  -7.148       87.70 0.218
   48.0314  736.6797  -7.694   38.7605  662.5943  -7.699      147.59 0.155
  435.1020  761.5151  -9.709  429.3981  663.2909  -9.711      935.14 0.058
  235.3919  749.7716  -7.608  227.9421  664.0030  -7.611      158.64 0.211
  921.2903  792.4535  -6.314  918.8964  663.9897  -6.312       63.42 0.452
  964.5906  794.7587  -8.178  962.4273  663.5972  -8.175      232.76 0.101
  516.9530  768.1130  -8.202  511.8861  664.7905  -8.204      275.55 0.169
  838.2668  788.4862  -6.780  835.4015  665.1918  -6.778       63.36 0.390
  997.7775  797.9500  -9.184  995.7781  664.7200  -9.181      703.91 0.067
  153.6130  746.5605  -8.047  145.3765  665.8947  -8.052      215.26 0.138
  591.5739  774.2402 -10.397  587.0573  666.2729 -10.397     2075.77 0.051
  476.7746  767.8920  -6.669  471.3853  667.0739  -6.671       64.17 0.306
  662.7512  779.6848  -6.782  658.7333  667.2876  -6.782       65.81 0.388
  777.0701  785.7244  -6.183  773.8347  666.2369  -6.182       35.45 0.486
  843.7703  790.5050  -6.316  840.9309  666.8673  -6.314       55.32 0.402
  824.1084  791.1327  -7.033  821.1475  668.7174  -7.032       86.23 0.304
  888.1407  796.5888  -9.441  885.5425  670.1863  -9.439      650.68 0.179
  283.0642  759.8189  -8.546  276.0131  671.0845  -8.549      410.01 0.102
  721.7417  788.2017 -10.156  718.1335  672.1559 -10.155     1718.71 0.040
  952.1655  802.4212  -7.472  949.9100  672.0263  -7.470      132.39 0.218
  325.0066  764.6329  -6.746  318.3185  673.2842  -6.750       58.89 0.320
  337.9344  764.8788  -8.622  331.3627  672.7229  -8.626      382.04 0.138
  934.1481  801.9382  -6.459  931.7946  672.6659  -6.457       42.94 0.483
  306.3767  763.6326  -6.723  299.5224  673.4465  -6.726       65.90 0.350
  959.6502  804.2868  -9.316  957.4296  673.4241  -9.313      904.94 0.462
  533.4413  779.2447 -10.606  528.4529  674.8999 -10.607     2347.26 0.037
  558.3485  780.2455  -6.865  553.5507  674.3493  -6.866       63.47 0.440
  701.4054  790.1019  -7.720  697.6160  675.2983  -7.720      131.53 0.227
  847.8567  798.7394  -6.839  845.0125  674.8431  -6.837       81.50 0.244
  479.2214  776.5196  -6.917  473.8111  675.5541  -6.918       79.36 0.367
  603.8031  784.4398  -8.157  599.3335  675.7135  -8.158      276.12 0.123
  168.8698  758.6797  -7.140  160.7168  677.0775  -7.145       97.76 0.244
  578.0299  784.0394  -9.620  573.3668  676.9186  -9.621      993.15 0.052
  879.6159  802.9796  -7.089  876.9455  677.1041  -7.087       88.52 0.305
  637.1710  789.0145  -8.886  632.9288  678.2107  -8.887      520.41 0.085
  238.7922  765.0959 -11.248  231.2905  679.1329 -11.252     4679.50 0.029
  474.2975  780.8972  -6.475  468.8260  680.2417  -6.477       57.74 0.331
  800.5288  802.1189  -6.801  797.3812  681.1662  -6.800       72.77 0.266
  972.5598  812.9336  -7.392  970.3812  681.2590  -7.389      114.75 0.161
  500.0091  784.7362 -10.750  494.7289  682.4794 -10.751     2570.32 0.036
   48.3762  756.3781  -6.239   38.9897  682.3052  -6.244       44.91 0.462
  695.0854  798.4410  -6.972  691.2180  684.0304  -6.972       95.94 0.290
  870.4328  809.2739  -8.723  867.6859  683.9671  -8.721      429.00 0.078
 1007.5394  817.8515  -6.925 1005.5286  683.9938  -6.922       78.54 0.245
  293.9723  774.6150 -11.144  286.9436  685.2156 -11.147     4448.73 0.019
  741.3583  802.1011  -9.485  737.8273  684.8324  -9.485      965.27 0.049
   92.4366  762.6978  -6.691   83.4786  685.8801  -6.696       66.91 0.430
  282.8721  774.4659 -10.932  275.7399  685.7599 -10.936     3465.95 0.030
  375.2394  780.1731  -9.945  368.9241  685.7012  -9.948     1405.86 0.048
  642.9414  797.4692  -8.173  638.7052  686.3074  -8.174      263.12 0.146
  925.6030  814.3699  -9.556  923.1603  685.6205  -9.554      943.56 0.053
  187.4307  769.7884  -8.307  179.3992  687.0415  -8.312      298.66 0.107
  206.6648  771.3149 -10.705  198.8147  687.3676 -10.709     2771.22 0.036
  943.3716  816.8244  -9.743  941.0205  686.9656  -9.741     1175.96 0.073
 1013.8911  822.3673  -7.759 1011.8989  688.1096  -7.756      151.57 0.280
  553.2826  794.2611  -8.916  548.3816  688.6872  -8.917      490.13 0.092
  274.9654  778.2564  -8.049  267.7380  690.0490  -8.053      248.53 0.162
  239.0709  777.5538  -7.280  231.5032  691.5890  -7.284      110.71 0.253
  497.8896  795.4962  -8.847  492.5417  693.3787  -8.849      419.11 0.079
  255.7969  781.8178  -6.863  248.3671  694.8130  -6.867       73.03 0.305
  436.3034  793.9617  -9.704  430.4521  695.6870  -9.707     1000.19 0.051
   77.1934  772.7468  -9.180   68.0153  696.9001  -9.186      716.86 0.063
  677.6747  810.6410  -7.442  673.6340  697.3162  -7.442      119.15 0.195
  822.6627  819.1533  -8.754  819.5912  696.8167  -8.752      441.86 0.066
  975.8567  828.4481  -6.988  973.6463  696.5548  -6.986       96.95 0.376
  172.1568  780.2662  -6.719  163.9136  698.4897  -6.724       68.12 0.439
  719.7710  813.8724 -11.239  716.0486  697.9482 -11.239     4488.47 0.089
   48.7111  773.4417  -8.007   39.2250  699.3791  -8.013      196.22 0.153
  988.4507  831.8351 -10.098  986.2970  699.1540 -10.096     1589.71 0.034
  321.0940  790.9628  -7.757  314.2304  699.8868  -7.760      208.14 0.179
  781.3135  821.0444  -6.912  777.9726  701.2840  -6.911       89.20 0.296
   27.1392  775.8883  -6.634   17.4128  703.1701  -6.640       65.90 0.371
  104.8286  780.6834 -10.023   95.8938  703.1210 -10.029     1556.23 0.042
  208.2771  787.1627  -7.955  200.3542  703.1367  -7.960      201.44 0.120
  425.0028  800.3840  -7.500  419.0240  702.8206  -7.503      191.12 0.252
  502.9991  805.9214  -7.747  497.6436  703.4925  -7.749      158.66 0.209
  580.1375  811.4704  -6.626  575.3680  704.2301  -6.627       56.81 0.402
  316.5170  796.2848  -9.943  309.5825  705.5013  -9.946     1127.62 0.051
  716.7196  821.1105  -9.416  712.9478  705.3771  -9.416      763.10 0.122
  939.7960  834.4324  -7.524  937.3670  704.7843  -7.522      149.97 0.168
  492.3283  807.4204  -6.921  486.8790  705.6589  -6.922       80.35 0.291
  595.5381  814.0348  -8.443  590.8757  705.8346  -8.444      370.84 0.085
  343.9339  799.2518 -12.091  337.2375  706.7568 -12.094     9947.23 0.032
  446.4099  806.3213  -7.421  440.5842  707.4264  -7.424      113.99 0.186
  790.9254  826.8258  -9.550  787.6249  706.4654  -9.549      779.81 0.045
  291.0951  797.6467  -8.471  283.9152  708.4548  -8.475      330.08 0.102
  485.8201  809.1091  -6.942  480.3094  707.7553  -6.944       82.80 0.298
  739.2251  826.4007  -6.258  735.5858  709.2641  -6.258       43.32 0.418
  140.3766  789.3323  -6.426  131.7590  709.5593  -6.431       57.85 0.488
  573.5651  817.7248  -8.856  568.7166  710.8981  -8.858      487.65 0.101
  335.0266  803.8742  -7.203  328.2239  711.9418  -7.206      105.03 0.407
  253.2945  800.0365  -7.698  245.7407  713.2124  -7.702      147.38 0.298
  562.0023  818.5029  -9.197  557.0597  712.3987  -9.199      640.06 0.054
  847.6485  836.7040  -7.200  844.6679  712.8049  -7.199       92.42 0.317
  195.8218  796.9152  -8.308  187.7205  713.6831  -8.313      287.95 0.136
  219.9002  798.6705  -7.916  212.0279  713.9340  -7.920      237.44 0.135
  470.5500  814.3663  -8.542  464.8881  713.9707  -8.544      377.74 0.142
  764.9381  834.0458  -7.513  761.4410  715.3055  -7.512      113.99 0.282
  462.7545  816.2706  -6.498  457.0184  716.3637  -6.500       62.87 0.395
  543.9630  821.1273  -6.693  538.8655  716.1514  -6.695       79.33 0.336
  567.8252  822.1836  -8.181  562.9117  715.7180  -8.183      302.36 0.101
  602.7918  824.2047  -7.716  598.1400  715.5566  -7.717      169.99 0.214
  662.1558  828.7685  -6.436  657.9274  716.4158  -6.437       55.25 0.399
  981.0327  847.8973  -8.775  978.7885  715.6663  -8.772      442.90 0.097
   44.5080  791.1579  -8.522   34.8692  717.3931  -8.528      313.71 0.131
  675.7940  830.0527  -6.382  671.6592  716.8489  -6.383       51.12 0.497
  948.7524  847.3111  -6.880  946.3317  717.0959  -6.878       68.74 0.315
  643.0045  828.7312  -8.955  638.6356  717.5741  -8.956      486.53 0.091
  491.6314  821.4988  -8.730  486.1099  719.7924  -8.732      445.66 0.145
  695.0336  834.7255  -8.227  691.0172  720.3217  -8.227      286.56 0.164
  512.7138  824.1676  -7.836  507.3517  721.1463  -7.838      161.51 0.192
  449.6118  821.1713  -9.829  443.7415  722.0903  -9.831     1267.84 0.043
  196.9983  805.7253  -8.261  188.8592  722.4332  -8.266      249.64 0.140
  584.5232  830.3566  -7.533  579.7034  722.8530  -7.534      137.70 0.290
  707.0567  838.1307  -8.134  703.1508  723.0030  -8.134      306.06 0.139
  169.0755  805.6611 -10.734  160.6564  724.1180 -10.739     2713.65 0.084
  957.6462  854.8792  -6.925  955.2508  724.1041  -6.922       84.50 0.310
  147.2422  804.8690  -7.443  138.6052  724.6925  -7.448      127.44 0.205
  207.2301  809.3191  -8.463  199.1728  725.3919  -8.468      314.91 0.090
  290.6033  814.4906  -8.690  283.3279  725.3518  -8.694      365.95 0.102
  776.4058  845.6113 -10.624  772.9406  726.1554 -10.623     2774.72 0.037
  421.9219  824.4255  -6.510  415.7989  727.0787  -6.513       60.10 0.417
  614.1761  836.4086  -7.418  609.5577  727.0557  -7.420      109.13 0.220
 1009.1614  860.5644  -8.793 1007.0281  726.5697  -8.791      442.67 0.107
  663.4734  840.5549  -7.078  659.2051  728.1238  -7.079      116.32 0.366
   25.2145  801.0033  -7.023   15.3121  728.4549  -7.029       73.01 0.276
  191.3983  811.6583  -7.272  183.1698  728.7265  -7.277      113.77 0.222
  243.2040  815.3605  -8.169  235.4680  729.1902  -8.173      232.96 0.121
   74.6219  805.2203 -10.380   65.2223  729.5962 -10.386     1980.92 0.037
  640.0701  840.7950 -10.270  635.6278  729.8262 -10.271     1821.62 0.035
  927.1587  859.7035  -6.610  924.5739  730.8308  -6.608       55.75 0.411
  393.8007  827.1464  -7.204  387.4143  731.5630  -7.207       87.92 0.314
  465.8420  831.7135  -8.474  460.0579  731.6284  -8.476      338.21 0.106
  228.4951  817.9278  -6.539  220.6005  732.6825  -6.544       48.65 0.394
  322.1559  823.9025  -6.507  315.1276  732.8012  -6.511       51.85 0.484
  617.4014  843.2873  -6.619  612.7775  733.7366  -6.621       67.46 0.434
  672.8236  846.6819  -7.114  668.5980  733.6688  -7.115       93.72 0.233
   58.9443  809.5240  -6.325   49.3505  734.8917  -6.331       43.85 0.369
  827.2965  857.2615  -6.206  824.1158  734.6282  -6.205       47.99 0.494
   83.3736  811.8066 -10.896   74.0282  735.6468 -10.902     3374.50 0.031
  457.3563  835.1388  -8.830  451.4843  735.5878  -8.832      428.21 0.088
   97.6819  813.9169  -9.297   88.4758  736.8639  -9.303      700.13 0.066
  335.6415  830.8819  -9.095  328.7029  738.9454  -9.099      614.17 0.111
  510.3354  842.3775  -6.874  504.8689  739.5209  -6.876       74.34 0.381
  785.8940  860.3713  -6.523  782.4355  740.3236  -6.523       52.91 0.475
  417.1851  838.7596  -8.212  410.9499  741.7254  -8.215      311.70 0.093
  543.0189  846.8992  -9.324  537.7958  742.0025  -9.326      774.90 0.420
  841.0075  865.5273  -9.557  837.8829  742.0369  -9.556     1000.12 0.052
  151.4537  823.0386 -10.606  142.7551  742.6307 -10.611     2455.92 0.024
  113.0082  822.2341  -9.891  103.9147  744.2362  -9.897     1299.65 0.048
  220.5710  829.0387  -7.035  212.5363  744.3080  -7.040       87.28 0.258
  534.6006  848.4091  -7.422  529.3026  744.0402  -7.424      135.03 0.180
  889.1261  870.8776  -8.914  886.2780  744.3791  -8.913      482.79 0.084
  525.2303  850.1734  -7.588  519.8488  746.3919  -7.590      155.58 0.199
   42.1160  820.0179 -10.063   32.2759  746.4634 -10.069     1343.11 0.049
  454.0840  847.0139 -10.467  448.1272  747.6798 -10.470     2199.43 0.040
  365.8116  842.2627  -6.727  359.0945  748.4510  -6.730       76.67 0.365
  250.9581  836.8703  -7.764  243.1799  750.2483  -7.769      184.27 0.175
  286.0105  838.5793  -8.194  278.5623  749.7633  -8.199      275.03 0.132
  440.0589  849.7621  -8.858  433.9688  751.3085  -8.861      482.67 0.083
  605.6794  859.9035  -8.137  600.8937  751.0952  -8.138      234.53 0.337
  708.0901  866.3801  -8.041  704.0786  751.1951  -8.041      260.11 0.154
  878.6819  877.8699  -8.660  875.7455  752.0233  -8.659      431.67 0.086
  656.7920  865.7219  -7.739  652.3691  753.7188  -7.740      179.28 0.187
  693.5555  868.1269  -7.030  689.3921  753.8249  -7.031       91.40 0.242
  898.1681  880.7368 -10.901  895.3405  753.6703 -10.900     3217.65 0.031
   67.7668  829.7430 -10.447   58.1466  754.5993 -10.453     2060.85 0.116
  720.6425  871.1690  -9.544  716.6998  755.2004  -9.545      905.04 0.096
  730.6497  871.7992 -12.440  726.7742  755.2051 -12.441    14404.24 0.017
  411.8648  854.0361  -6.960  405.5068  757.3532  -6.964       96.84 0.348
  571.0436  863.8444  -7.961  565.9692  757.2064  -7.963      179.17 0.185
  783.4222  876.6284  -7.524  779.8857  756.7358  -7.524      156.02 0.190
  946.4689  887.7191  -7.475  943.9026  757.6285  -7.473      125.46 0.235
  109.4865  837.2721  -9.608  100.2673  759.5254  -9.614      921.64 0.038
  254.3239  846.8012  -8.624  246.5246  759.9848  -8.629      412.84 0.119
  815.2990  882.0911 -10.579  811.9504  760.2061 -10.579     2629.88 0.040
   83.1995  837.3923  -7.705   73.6997  761.2961  -7.711      166.30 0.199
  469.1461  861.0350  -8.171  463.2500  760.7731  -8.173      274.79 0.163
  935.3744  890.6038  -8.134  932.7342  761.2066  -8.132      255.74 0.150
  391.3387  857.7722 -15.009  384.7770  762.3808 -15.013   999779.38 0.000
  851.8217  886.1811  -7.600  848.6899  762.0129  -7.599      144.04 0.215
  144.2573  842.4714 -10.202  135.3719  762.5527 -10.208     1573.08 0.038
  697.8573  879.0230  -6.991  693.6807  764.4559  -6.992       88.51 0.279
  894.2367  892.0944  -8.127  891.3459  765.2719  -8.126      236.20 0.113
  195.6684  848.7953  -9.629  187.2727  765.6620  -9.634     1009.15 0.042
  268.8101  853.7397  -6.595  261.1149  766.0265  -6.600       51.39 0.428
  736.7356  883.3610  -8.144  732.8565  766.3891  -8.144      219.39 0.167
  996.0938  899.3679 -10.097  993.7692  766.1686 -10.094     1429.69 0.100
  686.4443  881.2377  -9.667  682.1758  767.3860  -9.668      994.52 0.080
  484.3007  869.2775 -10.067  478.4933  768.0755 -10.070     1428.99 0.054
  591.1619  875.2965  -8.604  586.1962  767.4072  -8.606      477.46 0.367
  211.0855  853.3613  -7.346  202.8199  769.2691  -7.351      114.27 0.285
  400.2614  865.2094 -12.227  393.7435  769.2683 -12.230    11265.95 0.032
   72.7474  844.9190 -11.297   63.0900  769.4955 -11.303     4464.34 0.021
   96.9519  846.8182  -7.967   87.5432  769.8786  -7.973      203.56 0.176
  875.0734  895.9101  -8.533  872.0513  770.2871  -8.532      330.57 0.096
  164.7132  851.9252  -9.219  155.9845  770.7413  -9.224      654.52 0.291
  971.0787  902.7061  -7.592  968.6041  771.0710  -7.590      154.21 0.250
  627.5830  881.6994  -7.204  622.8723  771.5336  -7.205       86.75 0.415
  245.6894  858.7419  -8.224  237.7400  772.4881  -8.228      223.29 0.126
  425.3629  870.8323 -10.705  419.0424  773.3243 -10.708     2822.22 0.035
  814.8079  896.0831  -6.259  811.4042  774.2297  -6.259       50.64 0.490
 1005.2794  907.9312  -8.336 1002.9781  774.1541  -8.334      322.55 0.125
  797.6308  896.1820  -6.738  794.1143  775.4033  -6.738       66.46 0.375
   69.9793  850.7728  -9.261   60.2568  775.5362  -9.268      623.76 0.109
  681.7591  889.6202 -10.724  677.4219  776.0660 -10.725     2696.07 0.039
  181.2975  859.0411  -8.069  172.6979  776.8301  -8.075      260.31 0.154
  459.1781  876.6159  -7.619  453.1226  776.9961  -7.622      164.51 0.192
  543.7904  881.7385 -10.100  538.4164  776.8226 -10.102     1486.89 0.055
  701.5449  891.7362 -12.666  697.3436  776.9438 -12.667    17298.59 0.017
  137.5117  857.5935  -7.177  128.4682  778.1296  -7.183      100.16 0.248
  473.1368  878.1387  -9.276  467.1932  777.6460  -9.279      657.66 0.302
   56.2003  853.4349  -9.173   46.3118  779.0701  -9.180      677.63 0.076
  381.6622  873.2292  -8.599  374.9346  778.4659  -8.603      358.52 0.146
  893.6720  905.9942  -7.955  890.7296  779.2057  -7.954      220.50 0.131
   42.3553  853.0612 -12.116   32.3171  779.5655 -12.122     9341.10 0.020
   74.8272  855.3005  -8.623   65.1301  779.7696  -8.629      358.67 0.160
  165.0893  861.0032  -7.574  156.3123  779.8142  -7.580      136.82 0.182
  313.2430  870.2670  -6.468  305.8888  779.7931  -6.473       55.48 0.400
  596.4684  887.8008  -6.869  591.4898  779.5888  -6.870       83.77 0.413
  254.5661  867.6924  -6.844  246.6558  780.8975  -6.849       65.10 0.494
  264.6002  868.3521  -6.705  256.7851  780.9284  -6.709       83.52 0.321
  362.6405  874.3340  -8.613  355.7317  780.7661  -8.617      391.72 0.117
  650.6734  892.2971  -6.765  646.0934  780.6917  -6.766       62.22 0.486
  800.8486  903.3437  -9.906  797.3264  782.3649  -9.906     1171.62 0.035
  808.2505  903.6587  -6.722  804.7758  782.2168  -6.722       78.43 0.380
  855.4966  907.5134 -10.469  852.3112  783.1153 -10.468     2168.19 0.045
   16.6579  856.8550  -6.927    6.3176  784.9712  -6.934       87.00 0.304
  165.8770  869.9712  -7.502  157.0567  788.7514  -7.508      147.31 0.207
  203.5104  872.4284  -7.832  195.0606  788.8493  -7.837      196.60 0.210
  794.6781  909.3072 -10.251  791.0925  788.7160 -10.251     1871.48 0.058
  549.0822  894.7368  -7.966  543.6929  789.5017  -7.968      192.15 0.388
  776.9943  909.7405  -7.277  773.2883  790.2566  -7.277      107.41 0.238
   82.3043  866.6890  -9.484   72.6200  790.7142  -9.490      857.10 0.066
  881.2256  917.2504  -8.063  878.1667  791.2417  -8.062      243.04 0.101
   22.1820  864.4484  -8.060   11.8574  792.2364  -8.066      218.81 0.117
  302.5746  881.2524  -7.355  295.0606  791.4669  -7.360      111.18 0.250
  962.7217  923.4466  -8.283  960.1321  792.3307  -8.281      243.32 0.150
  851.9695  916.7626  -7.696  848.7286  792.5861  -7.695      178.54 0.156
  994.1108  925.8431  -7.047  991.6917  792.7602  -7.045       84.54 0.375
  130.6674  872.6133  -8.242  121.4645  793.6120  -8.248      235.68 0.144
  161.8411  877.0761  -7.325  152.9382  796.1252  -7.331      133.58 0.158
  410.1763  892.8717  -6.896  403.6109  796.3472  -6.900       81.45 0.323
  893.5940  922.8383  -8.926  890.5927  796.0547  -8.925      491.39 0.082
  312.8742  887.4320  -9.894  305.4271  797.0102  -9.899     1234.86 0.054
  637.4875  907.7277  -6.603  632.7421  796.9598  -6.604       74.13 0.373
  703.8698  911.6151  -8.443  699.6452  796.7122  -8.444      326.04 0.115
  224.1429  882.3978  -7.216  215.8473  797.5423  -7.222       97.31 0.311
  667.0617  910.8521  -7.528  662.5277  798.2318  -7.530      130.90 0.157
  962.7326  928.5875  -7.915  960.1264  797.4704  -7.913      188.20 0.161
  260.5318  886.3166  -8.961  252.5796  799.1818  -8.966      497.15 0.058
  235.2815  885.4031  -6.786  227.0818  799.8535  -6.791       62.39 0.443
  251.1456  886.2837  -8.054  243.1001  799.7388  -8.059      272.55 0.145
  941.0325  929.1961  -9.344  938.2971  799.4390  -9.343      668.22 0.053
  424.8696  898.7465  -8.895  418.4077  801.3078  -8.899      442.51 0.092
  508.1816  903.7032  -9.981  502.4137  801.0431  -9.984     1402.20 0.056
  203.7211  885.6639 -10.232  195.1989  802.0990 -10.238     1934.54 0.045
  729.8174  917.9693  -7.775  725.7527  801.4438  -7.775      157.00 0.275
 1007.6159  936.1464  -7.490 1005.2393  802.2150  -7.488      118.97 0.266
   50.0190  876.5940 -10.206   39.9226  802.6728 -10.212     1715.77 0.051
  452.7302  902.4895  -7.482  446.4947  803.3075  -7.485      133.43 0.239
  693.8015  917.5985  -9.341  689.4387  803.3059  -9.342      675.76 0.063
  991.8187  935.6129  -8.357  989.3560  802.6719  -8.355      276.84 0.135
  787.6069  924.1643  -8.648  783.9177  804.0206  -8.648      445.63 0.094
  802.8951  924.9458  -8.591  799.3054  803.8444  -8.591      369.40 0.114
  440.1997  903.5977  -6.565  433.8493  805.2038  -6.568       74.40 0.422
  724.3629  920.9917  -8.283  720.2475  804.8096  -8.283      321.14 0.086
  172.6663  887.0625  -6.747  163.8181  805.4529  -6.753       64.19 0.370
  566.9962  912.1257  -7.567  561.6751  805.7844  -7.570      167.72 0.242
  308.0227  897.9746  -7.248  300.4739  807.8764  -7.252      108.30 0.304
  478.7177  908.1591  -6.561  472.6795  807.3536  -6.564       84.96 0.446
  875.4242  933.5358  -7.269  872.2715  807.8925  -7.268      107.58 0.276
  354.2833  901.9033  -9.184  347.1561  808.9043  -9.188      696.51 0.074
  494.7565  911.1750  -7.589  488.8408  809.3667  -7.592      191.41 0.264
  653.0980  921.0248 -10.519  648.4160  809.2882 -10.521     2008.78 0.039
  449.4847  909.2804  -9.332  443.1882  810.3117  -9.336      746.16 0.073
  484.9333  911.5617  -6.914  478.9323  810.3706  -6.917      107.62 0.371
  717.2268  925.6192  -8.382  713.0419  809.8869  -8.383      345.99 0.135
  644.9112  924.2198  -9.701  640.1531  812.9996  -9.702     1121.38 0.060
  407.1041  910.9039  -8.419  400.4214  814.5999  -8.423      294.26 0.110
  499.9026  917.7223  -7.946  494.0000  815.5994  -7.949      273.94 0.257
  655.9879  926.5128  -9.816  651.3049  814.5993  -9.817     1156.02 0.069
  336.5436  907.9171  -9.340  329.2175  816.0438  -9.344      742.33 0.078
  915.7936  944.0612  -7.448  912.8561  815.8873  -7.447      136.84 0.212
  699.7672  932.9099  -6.536  695.3862  818.2535  -6.537       54.87 0.365
  107.4928  896.9348 -10.292   97.9006  819.4475 -10.299     1692.06 0.034
  663.9620  931.0387  -9.767  659.3208  818.6284  -9.768     1051.40 0.069
  957.3517  949.3357  -9.398  954.6464  818.5554  -9.397      678.19 0.082
  114.8469  898.9245  -7.890  105.3217  820.9793  -7.897      205.65 0.161
  872.1765  946.3472  -7.824  868.9578  820.9102  -7.823      214.86 0.187
  932.2611  949.7302  -8.266  929.4047  820.5239  -8.265      249.23 0.097
  251.1257  907.7987  -6.894  242.9629  821.2983  -6.899       80.56 0.365
  647.1214  933.2329  -6.580  642.3423  821.8819  -6.582       82.24 0.376
  891.4679  948.2095  -8.258  888.3651  821.5624  -8.257      255.54 0.116
  983.0518  953.9814  -9.761  980.4811  821.5891  -9.760      944.73 0.037
  668.5816  935.9999  -9.431  663.9548  823.3037  -9.433      804.96 0.067
  972.3998  954.6099  -8.387  969.7655  822.8859  -8.385      304.34 0.208
   92.4040  900.0295  -8.614   82.6306  823.4994  -8.620      273.87 0.263
   82.1405  900.4826  -8.413   72.2528  824.5997  -8.420      293.23 0.214
  465.7797  924.9465  -7.061  459.5501  824.9771  -7.065      119.30 0.429
   98.8297  903.2766  -7.820   89.1066  826.3502  -7.827      195.60 0.159
  312.9244  916.6639  -8.673  305.3258  826.2923  -8.678      403.93 0.111
  603.8791  935.1253  -7.689  598.7535  826.4921  -7.691      178.25 0.231
  242.6423  912.4321  -8.834  234.3684  826.4754  -8.839      380.98 0.114
  153.6150  908.5351  -7.795  144.4449  828.1731  -7.801      157.94 0.209
  431.8991  925.3695  -9.382  425.3691  827.5300  -9.386      712.29 0.060
  759.7418  946.1825 -12.075  755.7768  827.7960 -12.076    10278.85 0.016
  442.2311  927.1946  -6.536  435.7840  828.7085  -6.540       61.39 0.360
  710.3796  944.0233  -9.178  706.0712  828.7325  -9.179      705.92 0.073
  375.6441  924.6249 -10.503  368.6023  830.3221 -10.507     2062.65 0.035
  506.8629  932.3956  -9.087  500.9510  829.8552  -9.089      914.59 0.457
  802.0037  950.5722  -9.778  798.3118  829.5370  -9.778     1051.71 0.062
  530.1157  935.5048 -17.900  524.3850  831.5074 -17.902 14245610.00 0.000
 1015.1091  965.8583  -6.547 1012.6813  831.4529  -6.545       58.32 0.296
  787.5645  951.6072 -10.646  783.7708  831.4783 -10.647     2351.78 0.033
  303.5990  922.2767  -8.721  295.8801  832.5029  -8.726      402.99 0.093
  148.3072  914.6001  -9.862  139.0461  834.5869  -9.869     1195.99 0.048
  181.2805  917.4919  -8.475  172.3474  835.4099  -8.481      306.55 0.104
  503.3802  936.9657  -9.141  497.4175  834.6505  -9.144      547.30 0.376
  226.1329  921.6795  -7.605  217.6394  836.7827  -7.611      145.92 0.213
   59.7440  913.2116  -6.891   49.5337  838.7718  -6.898       82.01 0.342
  412.8447  935.7867 -10.888  406.0912  839.1628 -10.892     3474.70 0.029
  199.7027  925.6756  -7.022  190.9131  842.4531  -7.028       82.47 0.249
  743.7308  959.2087  -8.484  739.6019  841.8354  -8.485      314.43 0.133
  827.2509  964.3864  -6.742  823.6765  841.7738  -6.742       84.67 0.352
  372.8920  937.5731  -6.940  365.7590  843.4669  -6.945       80.38 0.301
  837.6015  966.1008  -6.869  834.0892  842.8395  -6.869       81.16 0.393
  164.0735  924.4870  -8.710  154.9211  843.5052  -8.716      405.02 0.126
  185.4219  926.3689  -7.092  176.4811  844.0473  -7.098      101.92 0.304
   26.7114  916.8363  -6.425   16.1180  844.4789  -6.432       49.34 0.446
  507.8066  947.5241 -10.311  501.8326  844.9458 -10.314     1909.61 0.200
   90.3092  924.7193  -8.095   80.3662  848.3845  -8.102      218.38 0.169
  851.1270  972.4430  -8.649  847.6801  848.3357  -8.649      369.33 0.083
  888.5688  974.1748  -6.942  885.3572  847.7172  -6.941       80.89 0.322
  360.5311  942.4753  -8.844  353.2566  849.1566  -8.849      476.84 0.100
   76.5525  926.7713  -7.099   66.4464  851.3087  -7.106       92.19 0.251
  271.0213  938.1647 -10.612  262.8945  850.4761 -10.617     2237.04 0.063
  843.4430  976.2256  -6.736  839.9322  852.6025  -6.736       71.99 0.431
  662.7699  965.8198  -7.210  657.9749  853.5170  -7.212      126.73 0.368
  783.2733  973.6935 -15.079  779.3660  853.8473 -15.079  1061286.25 0.000
  821.4793  976.4604  -7.349  817.8220  854.2166  -7.349      111.79 0.277
  872.6476  979.7762  -7.232  869.3137  854.3211  -7.231       91.79 0.260
 1002.8116  987.2909  -8.262 1000.2479  853.6592  -8.260      259.94 0.114
  284.5284  943.4843  -8.157  276.5087  854.9560  -8.162      234.32 0.161
  386.3877  951.9842  -9.215  379.3087  857.0553  -9.220      717.11 0.063
  322.6379  949.2362  -6.862  314.9647  858.3180  -6.867       76.01 0.295
  703.3476  974.0054  -7.615  698.8608  859.1776  -7.616      162.30 0.201
  821.9258  982.4057  -7.196  818.2494  860.1374  -7.196      105.28 0.256
  887.6419  987.6327  -9.685  884.3773  861.2388  -9.685     1020.93 0.067
  124.6048  940.1863  -8.791  114.9422  861.7312  -8.798      468.12 0.106
  240.5251  947.9415  -7.715  232.0347  862.1980  -7.720      151.13 0.216
  583.7419  969.5099  -9.566  578.3036  862.1841  -9.568      840.23 0.216
  181.0371  945.6170  -7.225  171.9410  863.6192  -7.231      123.35 0.253
  230.6752  948.5898  -7.137  222.0794  863.4692  -7.143       87.54 0.266
  269.4757  951.5704  -7.455  261.2612  864.0091  -7.461      122.17 0.299
  372.7412  958.8208  -8.623  365.4995  864.7649  -8.628      384.34 0.085
  686.6931  979.1435  -9.224  682.0259  865.3496  -9.226      706.38 0.097
  494.2215  967.4721  -8.616  488.0379  865.7795  -8.619      317.62 0.474
   30.6782  939.6952  -8.499   19.9906  867.1535  -8.506      321.13 0.182
  823.1529  989.5753  -7.041  819.4583  867.2344  -7.041      106.25 0.326
  845.7726  990.5639 -11.404  842.2252  866.8024 -11.404     5512.08 0.029
 1002.0417 1000.8407  -6.499  999.4310  867.2597  -6.497       49.81 0.426
   22.0024  940.3331  -8.546   11.2114  868.3406  -8.554      284.27 0.159
   99.0205  946.4310 -10.183   89.0437  869.6057 -10.190     1667.49 0.055
  930.5760  998.6709  -9.874  927.5451  869.5832  -9.873     1030.31 0.061
  978.6148 1002.5895  -8.453  975.8627  870.4836  -8.452      318.20 0.099
  107.1358  949.4625  -7.760   97.2295  872.1337  -7.767      185.85 0.166
  138.7307  950.9744  -8.983  129.1566  871.6574  -8.990      546.69 0.083
  910.2373  999.4539 -10.324  907.0762  871.6452 -10.323     1994.15 0.036
  665.3365  985.2931  -8.144  660.4802  872.8502  -8.146      237.46 0.094
  741.0976  989.8730 -10.569  736.8291  872.6898 -10.570     2440.18 0.039
   83.3568  949.4721  -7.702   73.1900  873.6430  -7.709      191.82 0.179
  522.0401  976.8920  -8.945  516.0521  873.4625  -8.948      522.97 0.103
  757.7207  992.1556  -8.487  753.5626  873.9292  -8.488      361.34 0.121
  305.0364  964.5557  -8.022  297.1103  874.7803  -8.028      247.15 0.127
  696.2121  989.7117 -10.728  691.5739  875.3299 -10.730     2523.16 0.026
  926.8998 1004.5647  -7.839  923.8262  875.7106  -7.839      218.69 0.192
  280.8376  965.6844  -7.496  272.6626  877.4388  -7.502      129.09 0.236
  169.3018  960.7275  -6.110  159.9961  879.5088  -6.116       41.01 0.408
  240.0540  966.8556  -8.626  231.4547  881.1875  -8.632      352.97 0.125
  380.8333  975.0639 -10.378  373.5862  880.5307 -10.383     1667.42 0.047
  494.7665  982.4596  -7.972  488.5174  880.7577  -7.975      233.24 0.186
  102.0549  959.2867  -9.202   92.0351  882.3058  -9.209      675.13 0.085
  518.1083  984.6323  -8.746  512.0511  881.4631  -8.749      384.54 0.166
  792.9289 1002.4028  -7.316  788.9795  881.9712  -7.317      145.60 0.297
  660.4626  995.9000  -6.744  655.5242  883.7768  -6.746       65.56 0.313
   38.9793  958.4363  -8.280   28.2625  885.4331  -8.287      251.53 0.108
  602.5812  993.7439  -9.437  597.1907  885.2649  -9.440      693.91 0.316
  615.2847  995.6032  -6.730  609.9891  886.3262  -6.732       79.54 0.353
  831.4500 1008.5723 -12.414  827.7414  885.7231 -12.415    12896.72 0.095
  882.7139 1011.6872  -6.534  879.3331  885.6161  -6.534       53.96 0.382
  581.5095  993.7064  -8.275  575.9462  886.5554  -8.278      318.93 0.262
  806.3422 1008.3530 -10.203  802.4633  887.0827 -10.204     1558.59 0.089
  975.2269 1018.3369  -9.282  972.4040  886.4498  -9.281      612.20 0.054
  695.7174 1003.4977 -10.261  691.0192  889.1624 -10.263     1942.10 0.025
  966.6492 1020.7317  -7.373  963.7668  889.3851  -7.372       95.01 0.437
  334.2480  981.7767  -7.519  326.5198  890.1967  -7.525      124.53 0.258
  349.5010  982.7674  -6.647  341.9156  890.2271  -6.652       73.64 0.424
  301.4226  980.6755  -7.177  293.3758  891.1651  -7.183       89.37 0.226
  751.3081 1008.6337  -6.977  747.0397  890.8259  -6.978       97.44 0.273
  766.3747 1009.7928  -7.573  762.2100  891.0381  -7.574      142.30 0.183
  799.5837 1012.4054 -13.144  795.6428  891.5637 -13.144    22232.30 0.092
  981.7400 1024.7422  -8.696  978.9355  892.4481  -8.695      379.25 0.107
  100.4924  969.8073  -9.682   90.3932  892.9551  -9.689      941.67 0.113
  310.5070  982.6870  -7.264  302.5408  892.6075  -7.269       98.59 0.252
  571.3047  999.5001  -7.537  565.6310  893.0012  -7.540      152.14 0.282
  784.3607 1013.3079 -10.482  780.3100  893.4247 -10.483     1970.34 0.039
  450.0569  993.0742  -9.627  443.3607  894.2109  -9.631      910.35 0.061
  264.4672  982.1312  -9.885  256.0369  894.9589  -9.891     1413.43 0.046
  988.1936 1028.1424  -7.565  985.4164  895.4429  -7.564      120.03 0.249
   58.1377  970.2443  -9.234   47.5653  896.0670  -9.242      675.85 0.084
  944.5165 1025.6683 -10.875  941.4821  895.7166 -10.875     2738.48 0.057
  126.5586  975.2189  -6.566  116.7119  896.7369  -6.573       53.24 0.354
  388.7282  991.5100  -8.502  381.4731  896.5132  -8.507      299.94 0.130
  276.3963  986.9149  -7.023  268.0626  899.0006  -7.029       96.62 0.370
  325.0968  990.5348  -9.364  317.2338  899.5524  -9.369      789.09 0.082
  795.2256 1020.5492 -11.195  791.2236  899.9890 -11.196     4680.74 0.029
  933.2074 1028.7118  -8.395  930.0922  899.4735  -8.395      287.51 0.127
  137.6560  980.3428  -6.519  127.8994  901.1749  -6.526       69.46 0.445
  429.6465  998.7353  -7.106  422.7370  901.1712  -7.111      104.75 0.254
  449.7242  999.8039  -8.623  442.9924  900.9748  -8.627      396.43 0.204
  531.4285 1004.9851 -10.330  525.3923  901.0103 -10.333     1983.19 0.036
  734.9231 1017.5368  -6.181  730.5002  900.7696  -6.183       44.15 0.476
  337.0967  994.9217 -10.298  329.3286  903.1917 -10.303     1842.86 0.032
  469.1956 1003.0458  -7.769  462.6234  902.9942  -7.773      154.96 0.254
  963.3058 1035.3145  -6.459  960.3557  904.1856  -6.459       55.19 0.480
  442.1450 1003.1604  -9.747  435.3281  904.8164  -9.751     1077.03 0.065
  764.2330 1023.9676  -8.441  759.9980  905.3618  -8.443      333.58 0.089
  869.9198 1029.8149  -6.280  866.3904  904.5614  -6.280       42.01 0.477
  951.6318 1035.5592  -7.520  948.6088  905.1653  -7.519      145.07 0.213
  238.7960  991.2040  -7.341  230.0497  905.6774  -7.347      106.81 0.248
  618.5332 1015.7756  -7.040  613.1771  906.3228  -7.043       97.08 0.252
  683.5499 1019.0128  -6.447  678.6950  905.4636  -6.449       54.14 0.433
  596.8523 1014.8090 -10.265  591.3232  906.7226 -10.268     1783.86 0.078
  697.4244 1021.7261  -9.336  692.6652  907.3054  -9.338      734.57 0.091
  124.2970  987.1586  -8.521  114.3558  908.8539  -8.528      379.61 0.105
   65.6304  984.3521 -11.068   55.0572  909.7445 -11.076     3958.41 0.027
  922.3233 1038.7521  -8.121  919.1052  910.2053  -8.121      273.40 0.110
 1006.0647 1044.0807  -9.828 1003.3416  910.2606  -9.826     1137.15 0.058
  406.7138 1007.0670  -8.651  399.5503  910.9683  -8.656      344.05 0.108
  748.8848 1028.5021 -10.957  744.5209  910.8677 -10.959     3298.85 0.034
  223.0337  997.4968  -9.356  214.1263  912.9732  -9.363      786.82 0.090
  285.0398 1001.5087  -6.758  276.7531  913.0775  -6.764       59.60 0.420
  577.3577 1020.2902 -13.435  571.6727  913.4463 -13.438    30752.30 0.021
  365.4041 1007.4749  -9.818  357.8840  913.9763  -9.823     1341.51 0.068
  454.9608 1013.1772  -9.880  448.2502  914.0341  -9.884     1285.10 0.083
  687.1448 1027.9046  -6.939  682.3092  914.1479  -6.941       85.86 0.362
  873.5602 1041.0689  -7.566  870.0208  915.5743  -7.566      121.45 0.218
  636.0813 1026.4296  -7.202  630.8502  915.8911  -7.205      114.41 0.306
  773.0739 1035.1353 -10.353  768.8673  915.9715 -10.354     2104.82 0.037
  546.5056 1024.2675  -6.866  540.5417  919.3771  -6.870       66.93 0.433
   51.5907  994.8991  -7.410   40.8413  921.2037  -7.418      114.90 0.336
  445.8388 1018.7539  -7.335  439.0190  920.1972  -7.339       99.44 0.422
  916.5541 1048.9039  -7.133  913.2677  920.7052  -7.133       87.81 0.297
  646.5331 1035.3406  -6.957  641.3472  924.1562  -6.960       83.84 0.212
  735.7325 1040.8299  -6.653  731.2313  924.0290  -6.655       66.88 0.378
  396.2256 1020.4757  -7.417  388.9360  925.0568  -7.422      129.58 0.223
  714.2513 1040.8652  -8.159  709.5895  925.4201  -8.161      217.10 0.143
   66.2422 1001.0392  -7.692   55.6209  926.4366  -7.700      131.52 0.177
  162.9520 1006.5023 -10.152  153.3597  925.8006 -10.159     1577.40 0.059
  516.0198 1029.6199  -8.420  509.7694  926.6615  -8.424      327.30 0.114
  116.5764 1005.9417  -9.631  106.4852  928.1707  -9.638      915.90 0.058
  360.4793 1021.1559  -6.949  352.8415  928.0010  -6.954       80.38 0.326
  791.3904 1048.4851 -10.618  787.2623  928.1813 -10.619     2544.19 0.044
  176.3992 1010.4877  -7.412  166.9276  928.9471  -7.419      142.23 0.217
  323.4009 1019.4831  -8.982  315.4059  928.6714  -8.987      506.58 0.107
  270.3217 1017.3309  -6.780  261.7998  929.8702  -6.786       77.50 0.237
  595.9071 1037.6008 -10.435  590.2993  929.6152 -10.439     1810.86 0.141
  451.9990 1029.8391  -8.886  445.1815  930.9176  -8.890      519.93 0.104
  241.8767 1017.7892  -6.514  233.0570  932.1284  -6.521       58.74 0.332
  531.5492 1035.7468  -7.703  525.4043  931.8210  -7.706      173.37 0.180
  718.7276 1047.3958  -7.334  714.0726  931.6771  -7.336      134.52 0.258
  799.6082 1052.7399  -6.482  795.5218  931.9225  -6.483       53.96 0.364
  156.8894 1013.3716  -8.054  147.1931  933.0731  -8.062      257.33 0.214
  373.7641 1026.4264  -7.364  366.2285  932.4431  -7.369      116.17 0.196
  197.6652 1018.0651  -9.288  188.3762  935.2013  -9.295      690.77 0.094
  162.2441 1017.7222 -10.547  152.5807  937.0977 -10.554     2334.42 0.036
  230.0282 1021.6887  -7.155  221.0628  936.7878  -7.162       95.60 0.294
  520.6617 1040.6749  -7.043  514.4002  937.4451  -7.047       76.39 0.242
  827.1260 1059.2537  -9.396  823.2072  936.7069  -9.397      796.07 0.070
  247.7045 1023.7303 -10.392  238.9135  937.7170 -10.399     2174.69 0.029
  406.9023 1033.5433  -6.790  399.6493  937.4787  -6.795       60.50 0.261
  421.1847 1035.4958  -6.796  414.0574  938.5315  -6.801       64.47 0.350
  709.9206 1053.3466  -9.825  705.1743  938.1925  -9.828     1207.19 0.052
   36.7658 1013.0122  -7.689   25.7362  940.3134  -7.697      145.31 0.145
  910.8165 1068.0791  -7.097  907.4269  940.2591  -7.097       84.85 0.296
  884.2337 1066.7439  -8.540  880.6738  940.6005  -8.540      346.58 0.112
  968.6927 1072.2631  -9.684  965.6555  940.7941  -9.684     1005.92 0.059
  111.6821 1019.3263  -8.507  101.4588  941.9059  -8.515      304.40 0.130
  306.1881 1031.8934  -6.661  297.9548  942.2026  -6.667       54.84 0.426
  497.3023 1043.6432  -7.961  490.8231  941.8930  -7.966      223.36 0.161
  259.9438 1029.6971  -6.435  251.2482  942.9257  -6.441       48.61 0.476
  661.4909 1054.9798 -10.588  656.3400  942.8820 -10.590     2559.67 0.034
  774.3185 1062.2708  -9.778  770.0144  943.0620  -9.780     1244.65 0.051
   25.3573 1016.4446 -10.795   14.1334  944.4550 -10.803     2718.60 0.033
  746.3291 1060.6745  -6.776  741.8262  943.2313  -6.778       65.55 0.338
  877.9353 1069.8350  -8.295  874.3224  944.0925  -8.296      275.67 0.152
   48.0920 1018.6396 -10.250   37.1577  945.2423 -10.258     1750.44 0.039
  154.0879 1025.0927  -8.923  144.2949  945.0062  -8.930      548.90 0.087
  687.1723 1059.2196  -9.546  682.2056  945.5066  -9.548      801.94 0.465
  244.0237 1032.9824  -8.044  235.1442  947.2274  -8.051      237.30 0.182
  279.9490 1035.1944 -10.508  271.4305  947.1723 -10.514     2105.87 0.024
  313.7384 1036.6024  -8.930  305.5565  946.4462  -8.936      428.24 0.094
  625.8077 1056.5350  -9.680  620.3627  946.6935  -9.683     1010.53 0.053
 1004.8264 1080.5292  -6.654 1001.9825  946.7843  -6.654       64.78 0.425
  644.2719 1059.5841  -6.937  638.9635  948.5813  -6.940       82.76 0.295
  159.7587 1031.0245  -9.462  149.9932  950.5968  -9.470      866.44 0.071
  452.6237 1049.4240  -8.380  445.7173  950.5062  -8.385      269.40 0.135
  786.2994 1070.5093  -7.546  782.0496  950.5546  -7.548      150.11 0.215
  878.9119 1076.9728  -7.615  875.2800  951.1762  -7.615      145.12 0.277
  100.5895 1028.1139  -6.311   90.1913  951.4233  -6.319       48.18 0.457
  472.5790 1051.9843  -9.291  465.8405  951.8123  -9.295      755.14 0.084
  612.4937 1061.2172  -6.481  606.9189  952.2252  -6.484       65.81 0.499
  312.8114 1043.1160  -9.585  304.5857  953.0357  -9.591      953.75 0.048
  458.1256 1051.7495  -8.333  451.2580  952.4896  -8.337      278.03 0.157
  545.4950 1058.3666 -10.287  539.3668  953.6037 -10.291     1755.13 0.047
  579.9147 1062.2086  -7.458  574.0634  955.2774  -7.462      127.68 0.244
  689.9577 1068.3509  -7.128  684.9745  954.4763  -7.130       96.81 0.251
  720.4503 1071.9065  -6.819  715.7075  956.1148  -6.821       78.59 0.308
  886.2659 1082.3233 -10.087  882.6644  956.0681 -10.088     1537.17 0.054
  464.4924 1057.8274  -6.705  457.6532  958.1792  -6.709       75.25 0.440
  203.8956 1042.2082  -8.415  194.5398  959.0197  -8.422      302.81 0.116
  247.7660 1044.8827 -10.425  238.8614  958.9242 -10.432     2290.97 0.039
  454.6789 1058.1857  -9.430  447.7490  959.1582  -9.434      811.93 0.068
  781.5290 1079.3462  -9.307  777.2104  959.7050  -9.309      756.92 0.075
  420.1833 1057.3380  -7.271  412.9392  960.4887  -7.276      105.52 0.268
  539.6518 1064.9836  -6.461  533.4425  960.6034  -6.465       69.10 0.447
  568.5288 1068.2860  -8.994  562.5534  962.0864  -8.998      522.67 0.133
  711.5563 1077.3583  -7.802  706.7230  962.1374  -7.804      163.52 0.213
  179.0723 1044.2659 -10.553  169.4402  962.6555 -10.560     2219.65 0.036
  398.0009 1058.1758  -8.592  390.5400  962.7346  -8.598      328.41 0.118
  605.4820 1071.4323  -7.911  599.8042  962.9021  -7.914      217.16 0.211
   57.8394 1038.0365  -7.849   46.8984  964.0868  -7.857      205.76 0.150
  255.6797 1050.1541  -7.353  246.8294  963.7096  -7.360      123.20 0.342
 1005.1281 1097.5884  -7.129 1002.2319  963.8373  -7.129      101.10 0.275
  474.2192 1065.3817  -9.552  467.4316  965.1361  -9.556      846.34 0.059
  724.4008 1081.1204  -7.679  719.6502  965.0932  -7.681      166.44 0.168
  842.9077 1088.7236  -9.481  838.9884  965.2158  -9.483      886.02 0.068
  875.9269 1090.2453  -7.151  872.2275  964.6525  -7.152      104.56 0.365
  750.4255 1084.4154  -7.995  745.8578  966.7478  -7.997      195.60 0.166
   66.1811 1042.3604  -9.271   55.3094  967.8966  -9.279      759.28 0.086
  235.3364 1053.0185  -7.413  226.2567  967.8705  -7.420      122.07 0.241
  676.1555 1081.3445  -8.702  671.0090  968.3637  -8.705      327.64 0.396
   28.1224 1041.2546  -7.559   16.7852  969.1747  -7.568      148.74 0.222
   75.1456 1043.5166  -9.033   64.3690  968.4885  -9.041      471.06 0.114
   17.8408 1041.3231  -8.733    6.3821  969.8953  -8.741      423.90 0.080
  783.7761 1089.3069  -8.801  779.4349  969.5378  -8.802      382.53 0.189
  836.8450 1094.1086  -7.515  832.8638  970.9909  -7.516      169.52 0.201
  719.9684 1087.7010  -6.890  715.1569  971.9647  -6.892       90.11 0.337
   67.5156 1048.7102  -7.641   56.6207  974.1835  -7.649      115.86 0.439
  358.5864 1067.0103 -12.823  350.6952  974.0913 -12.829    20481.06 0.015
  616.2590 1083.4643  -8.834  610.6178  974.2752  -8.837      429.35 0.090
  983.1816 1106.3788  -7.244  980.1229  974.0236  -7.244      131.14 0.274
  956.2985 1106.0613 -11.366  953.0723  975.4053 -11.366     4743.55 0.033
  945.0711 1105.6998  -8.155  941.7745  975.7533  -8.155      232.07 0.177
  533.3794 1080.9641 -11.176  527.0422  977.0139 -11.180     4664.61 0.035
  370.9998 1071.4075  -7.512  363.2089  977.7127  -7.518      136.51 0.282
  752.8967 1096.2337  -7.259  748.3001  978.4282  -7.261      102.47 0.242
  478.6349 1080.7187 -11.742  471.8141  980.2295 -11.747     7460.63 0.024
  619.4460 1089.7524  -9.635  613.8036  980.3739  -9.638      946.77 0.043
  143.6523 1059.9186 -10.358  133.5464  980.6019 -10.366     1719.60 0.039
  704.6515 1096.1863  -7.952  699.6865  981.4333  -7.954      176.38 0.167
  938.3213 1109.9602  -8.135  934.9669  980.4451  -8.135      217.22 0.149
  462.4611 1081.8713  -9.203  455.4882  982.4079  -9.207      583.09 0.084
  520.5052 1084.9398 -10.561  514.0372  981.8123 -10.565     2666.21 0.034
  567.6557 1087.9492  -7.142  561.5842  981.8445  -7.146      104.94 0.288
  157.5399 1062.8141  -7.869  147.5699  982.6262  -7.877      179.29 0.168
  398.0374 1078.3544  -7.170  390.4762  982.9626  -7.175       93.22 0.369
  424.7030 1078.9782  -9.316  417.3957  981.8964  -9.321      689.44 0.400
  591.5672 1090.4383  -9.402  585.6884  982.8254  -9.405      817.05 0.055
  695.9205 1097.9847  -7.569  690.8600  983.7827  -7.571      168.77 0.207
  918.7167 1113.0917 -10.623  915.2236  984.8202 -10.623     2656.05 0.060
   62.0456 1060.2731  -6.656   51.0179  986.1334  -6.664       62.95 0.397
  276.5743 1073.2165  -7.486  267.8177  985.5151  -7.492      119.18 0.201
  604.8963 1094.6730  -8.505  599.1110  986.2250  -8.509      369.34 0.075
  751.6727 1103.6906  -6.638  747.0371  985.9744  -6.640       63.55 0.313
  432.5862 1084.0209  -9.158  425.3276  986.4532  -9.163      536.17 0.067
  870.4947 1112.3475 -10.245  866.6790  987.1262 -10.246     1816.93 0.046
  105.1164 1064.9688  -8.666   94.5515  988.1128  -8.674      368.01 0.101
  746.8760 1105.6025  -6.701  742.1965  988.1931  -6.703       75.53 0.422
  553.7581 1094.2170  -7.791  547.5380  989.0055  -7.795      168.04 0.187
  651.4748 1100.0061  -8.019  646.0508  988.6203  -8.022      244.47 0.162
  207.4626 1073.5258 -10.751  197.9731  990.2063 -10.758     2961.73 0.037
  217.1801 1073.4957  -9.934  207.7953  989.5599  -9.942     1314.36 0.057
  241.7673 1076.2715 -11.009  232.6294  990.7855 -11.016     3544.95 0.022
  391.6512 1085.6959  -8.870  383.9910  990.7289  -8.876      525.89 0.102
  566.8386 1096.9378 -10.956  560.7194  990.9039 -10.959     3634.97 0.027
  590.9489 1098.3069  -9.399  585.0298  990.7492  -9.403      705.53 0.289
  257.6597 1078.6640  -6.667  248.6764  992.1778  -6.674       57.93 0.428
  683.0425 1105.5702 -10.628  677.8485  992.1968 -10.631     1621.82 0.493
   36.2094 1065.5473  -8.092   24.8494  993.0660  -8.101      274.65 0.123
  318.8592 1084.5435  -6.335  310.4769  994.1944  -6.342       47.88 0.400
  432.5305 1091.0008  -6.744  425.2374  993.4545  -6.749       66.30 0.364
  894.7133 1121.1352 -10.064  891.0317  994.3928 -10.064     1460.36 0.059
  713.2896 1110.8436  -7.194  708.3311  995.5695  -7.197       80.88 0.408
  920.8390 1122.9573  -7.024  917.3259  994.5635  -7.024       76.12 0.370
   43.4398 1069.1188  -7.658   32.1423  996.1915  -7.667      161.12 0.240
 1001.7313 1129.9036  -9.571  998.7119  996.3968  -9.571      862.04 0.072
  852.8807 1120.8990  -9.021  848.9125  996.8042  -9.022      610.95 0.064
   73.0919 1072.2349  -8.599   62.1191  997.4365  -8.608      372.59 0.104
  639.7151 1108.5328 -12.685  634.1583  997.9081 -12.688    18986.12 0.013
  718.9266 1113.9423  -8.669  713.9990  998.3168  -8.672      401.72 0.091
  939.1657 1127.4215  -7.222  935.7579  997.8730  -7.223      103.33 0.267
   85.3652 1074.2371  -7.170   74.5211  998.6666  -7.178       92.73 0.302
  515.1100 1101.6858  -6.599  508.5165  998.9379  -6.604       59.17 0.415
  729.8521 1115.1035  -9.790  725.0043  998.7882  -9.793     1213.49 0.064
  429.4355 1098.0888  -6.543  422.0788 1000.7571  -6.549       64.86 0.479
  659.6522 1112.4238  -9.459  654.2414 1000.5442  -9.463      838.78 0.043
  902.1560 1128.4494  -6.483  898.4990 1001.2454  -6.484       55.47 0.428
  119.4682 1080.0303  -7.356  108.9766 1002.3152  -7.364      118.08 0.206
  349.7124 1093.8453 -10.166  341.5946 1001.5636 -10.172     1416.07 0.052
  386.6987 1096.8786  -8.953  378.9337 1002.2565  -8.959      571.16 0.103
 1001.5982 1135.6901  -8.519  998.5596 1002.1976  -8.519      308.05 0.153
   44.6961 1075.9629  -6.987   33.3713 1002.9808  -6.996       81.66 0.361
  451.1911 1102.9530  -5.876  444.0132 1004.2560  -5.881       33.83 0.453
  546.9823 1108.6164  -7.450  540.6373 1003.8661  -7.454      124.12 0.230
  214.5418 1088.3569  -7.014  205.0472 1004.6352  -7.021      100.77 0.449
   79.1507 1081.2372  -8.211   68.1934 1006.0862  -8.220      276.87 0.123
  530.3759 1110.1290  -7.871  523.8780 1006.4343  -7.875      191.86 0.145
  642.6097 1117.6378 -10.086  637.0374 1006.8481 -10.089     1590.65 0.089
  870.9053 1131.7255  -7.009  867.0227 1006.5054  -7.010       82.03 0.381
  131.0610 1086.4797 -10.166  120.6621 1008.0508 -10.174     1659.02 0.044
  354.5786 1100.0859  -8.206  346.4776 1007.5130  -8.212      242.84 0.102
  589.4683 1114.9307 -12.170  583.4625 1007.5022 -12.173     8621.26 0.025
  537.0750 1113.4126  -7.631  530.6208 1009.3012  -7.635      156.61 0.119
  918.6408 1136.8445  -9.933  915.0654 1008.6077  -9.934     1405.04 0.049
  471.8547 1109.4730 -10.469  464.8353 1009.4837 -10.474     1964.59 0.040
  268.7591 1098.4983  -8.250  259.7856 1011.3689  -8.257      270.28 0.134
  719.9430 1126.5955  -9.320  714.9713 1010.9287  -9.323      844.35 0.080
  941.1985 1140.3913  -7.247  937.7601 1010.7302  -7.248      110.78 0.337
  219.4514 1096.1523  -6.455  209.9670 1012.1441  -6.463       52.42 0.345
  580.3037 1119.8313 -10.197  574.1975 1012.9945 -10.201     1141.32 0.449
  609.3257 1121.9349  -9.404  603.4574 1013.2633  -9.407      722.94 0.091
  669.7512 1125.0103  -8.352  664.3685 1012.5159  -8.355      286.41 0.131
  659.9188 1125.7480 -10.635  654.4532 1013.8781 -10.639     2416.81 0.027
  780.5361 1132.8262  -6.547  776.0013 1013.3314  -6.550       50.70 0.348
  716.4564 1130.8211  -7.941  711.4399 1015.3833  -7.943      185.85 0.206
  733.5406 1132.8015  -6.432  728.6490 1016.2846  -6.434       57.35 0.398
  946.8429 1146.1085 -10.275  943.4223 1016.0971 -10.276     1693.55 0.048
  588.0520 1124.9305  -8.877  581.9896 1017.6140  -8.881      489.81 0.191
  518.8079 1121.9881  -6.832  512.1528 1019.0547  -6.837       78.81 0.381
  875.2491 1144.6408  -6.981  871.3503 1019.1647  -6.982      114.52 0.471
#
#....u.... ....v.... ...w... ....X.... ....Y.... ...M... .....p..... ..q..  
#
#  (01)      (02)     (03)     (04)      (05)     (06)      (07)     (08)   
#
